Time (s),PPG Value
0.559616,-0.1934
0.570264,-0.1957
0.580244,-0.1972
0.590188,-0.1981
0.60014,-0.1988
0.610072,-0.1992
0.620692,-0.1995
0.630664,-0.1997
0.640628,-0.1998
0.6506,-0.1999
0.660572,-0.1999
0.670532,-0.1999
0.681216,-0.2
0.69118,-0.2
0.70114,-0.2
0.71112,-0.2
0.72108,-0.2
0.73174,-0.2
0.7417,-0.2
0.751644,-0.2
0.7616,-0.2
0.771556,-0.2
0.782224,-0.2
0.792224,-0.2
0.802196,-0.2
0.812192,-0.2
0.822192,-0.2
0.832892,-0.2
0.844508,-0.2
0.854528,-0.2
0.86454,-0.2
0.874556,-0.2
0.88526,-0.2
0.895272,-0.2
0.905272,-0.2
0.915284,-0.2
0.925296,-0.2
0.935984,-0.2
0.9476,-0.2
0.957608,-0.2
0.96762,-0.2
0.977628,-0.2
0.988328,-0.2
0.999952,-0.2
1.00996,-0.2
1.019968,-0.2
1.029956,-0.2
1.040644,-0.2
1.050644,-0.2
1.060644,-0.2
1.070652,-0.2
1.080624,-0.2
1.0913,-0.2
1.102896,-0.2
1.112896,-0.2
1.1229,-0.2
1.132904,-0.2
1.143568,-0.2
1.153556,-0.2
1.163552,-0.2
1.173532,-0.2
1.183516,-0.2
1.194196,-0.2
1.205776,-0.2
1.215748,-0.2
1.225756,-0.2
1.235756,-0.2
1.246452,-0.2
1.256464,-0.2
1.266468,-0.2
1.276456,-0.2
1.28644,-0.2
1.29712,-0.2
1.308736,-0.2
1.318736,-0.2
1.328744,-0.2
1.338728,-0.2
1.349412,-0.2
1.359396,-0.2
1.369384,-0.2
1.379376,-0.2
1.389364,-0.2
1.400052,-0.2
1.411628,-0.2
1.421612,-0.2
1.4316,-0.2
1.441576,-0.2
1.45226,-0.2
1.462252,-0.2
1.472256,-0.2
1.482236,-0.2
1.492224,-0.2
1.502908,-0.2
1.51452,-0.2
1.524516,-0.2
1.534504,-0.2
1.544492,-0.2
1.555168,-0.2
1.565164,-0.2
1.57516,-0.2
1.585136,-0.2
1.59512,-0.2
1.605796,-0.2
1.617384,-0.2
1.627372,-0.2
1.637348,-0.2
1.647328,-0.2
1.658008,-0.2
1.668,-0.2
1.677988,-0.2
1.687976,-0.2
1.69796,-0.2
1.708644,-0.2
1.720228,-0.2
1.730212,-0.2
1.740196,-0.2
1.750188,-0.2
1.760876,-0.2
1.77088,-0.2
1.780868,-0.2
1.790856,-0.2
1.800856,-0.2
1.811528,-0.2
1.823116,-0.2
1.833104,-0.2
1.8431,-0.2
1.853092,-0.2
1.863756,-0.2
1.873744,-0.2
1.883736,-0.2
1.893744,-0.2
1.903744,-0.2
1.913732,-0.2
1.92442,-0.2
1.935992,-0.2
1.945984,-0.2
1.955976,-0.2
1.965988,-0.2
1.9767,-0.2
1.986708,-0.2
1.996704,-0.2
2.006696,-0.2
2.016684,-0.2
2.02736,-0.2
2.038944,-0.2
2.048916,-0.2
2.0589,-0.2
2.068876,-0.2
2.079552,-0.2
2.089556,-0.2
2.099536,-0.2
2.109528,-0.2
2.119512,-0.2
2.130204,-0.2
2.141804,-0.2
2.151788,-0.2
2.16178,-0.2
2.171756,-0.2
2.182448,-0.2
2.192448,-0.2
2.202444,-0.2
2.212452,-0.2
2.222444,-0.2
2.233132,-0.2
2.244732,-0.2
2.254712,-0.2
2.2647,-0.2
2.27468,-0.2
2.285352,-0.2
2.295344,-0.2
2.305316,-0.2
2.31532,-0.2
2.325304,-0.2
2.336008,-0.2
2.347604,-0.2
2.357588,-0.2
2.36758,-0.2
2.377564,-0.2
2.388252,-0.2
2.398256,-0.2
2.408248,-0.2
2.418252,-0.2
2.42826,-0.2
2.438936,-0.2
2.450528,-0.2
2.460504,-0.2
2.470484,-0.2
2.480468,-0.2
2.49114,-0.2
2.50114,-0.2
2.51112,-0.2
2.521108,-0.2
2.531096,-0.2
2.5418,-0.2
2.553412,-0.2
2.56342,-0.2
0.010604,-0.2
0.017292,-0.2
0.025452,-0.2
0.03362,-0.2
0.041796,-0.2
0.0522,-0.2
0.061904,-0.2
0.071592,-0.2
0.081308,-0.2
0.089472,-0.2
0.09918,-0.2
0.109588,-0.2
0.119308,-0.2
0.12902,-0.2
0.137224,-0.2
0.146952,-0.2
0.157356,-0.2
0.16708,-0.2
0.1768,-0.2
0.184988,-0.2
0.194708,-0.2
0.204448,-0.2
0.214856,-0.2
0.226112,-0.2
0.235856,-0.2
0.245628,-0.2
0.255384,-0.2
0.265848,-0.2
0.275624,-0.2
0.2854,-0.2
0.295184,-0.2
0.304964,-0.2
0.315448,-0.2
0.325232,-0.2
0.335016,-0.2
0.343264,1.0
0.353032,1.0
0.363508,1.0
0.3733,1.0
0.38306,1.0
0.39284,1.0
0.4026,1.0
0.410816,1.0
0.421284,1.0
0.431076,-0.1193
0.440936,-0.3277
0.45076,-0.3802
0.460588,-0.4869
0.471108,-0.5776
0.480928,-0.5589
0.49076,-0.4845
0.50058,-0.4888
0.508864,-0.4248
0.519408,-0.3505
0.52924,-0.3152
0.539088,-0.3238
0.548924,-0.3056
0.558776,-0.1544
0.569444,0.1307
0.57946,0.2596
0.589652,0.1635
0.599668,0.0852
0.609668,0.1274
0.620352,0.1975
0.630372,0.2165
0.640376,0.1475
0.650368,-0.0437
0.6602,-0.2896
0.670728,-0.4642
0.680568,-0.7257
0.690388,-0.8804
0.700196,-0.7872
0.710036,-0.6447
0.719856,-0.5281
0.730404,-0.3654
0.740244,-0.119
0.750184,0.041
0.76016,-0.0126
0.77,-0.1756
0.780532,-0.2855
0.790384,-0.0639
0.800412,0.2891
0.810448,0.3279
0.820456,0.214
0.831144,0.2605
0.841156,0.3247
0.851176,0.3839
0.8612,0.2871
0.871184,-0.0539
0.881688,-0.3878
0.891524,-0.551
0.90136,-0.5927
0.911192,-0.5303
0.921012,-0.4331
0.931516,-0.3649
0.94134,-0.3208
0.951156,-0.3053
0.960984,-0.3304
0.970832,-0.3791
0.981352,-0.3849
0.991176,-0.2942
1.001032,-0.2134
1.010896,-0.0056
1.0209,0.1319
1.031796,0.1509
1.041804,0.0674
1.051716,-0.0705
1.061572,-0.1971
1.071432,-0.0771
1.082044,0.0147
1.092072,0.0444
1.102044,-0.0134
1.1119,-0.1409
1.121744,-0.3248
1.132276,-0.7368
1.142128,-0.7575
1.151944,-0.7198
1.16178,-0.5796
1.171608,-0.5934
1.181448,-0.6169
1.191988,-0.5883
1.201836,-0.4949
1.211676,-0.2829
1.221532,-0.1418
1.2314,-0.3168
1.241944,-0.0176
1.251992,0.316
1.261992,0.3841
1.271996,0.4007
1.282052,0.397
1.29276,0.3838
1.30278,0.3141
1.312812,0.1407
1.322708,-0.1531
1.332552,-0.3055
1.343052,-0.4026
1.352884,-0.5379
1.362728,-0.6679
1.372572,-0.7153
1.382392,-0.7355
1.392924,-0.6884
1.402752,-0.6166
1.412612,-0.4172
1.422468,-0.2407
1.432308,-0.2298
1.442156,-0.272
1.452676,-0.2702
1.462528,-0.0079
1.472564,0.1275
1.482772,0.1311
1.49278,0.0769
1.503484,0.2169
1.513544,0.2894
1.523556,0.2164
1.533584,0.0828
1.54348,-0.0882
1.554004,-0.2786
1.563864,-0.4212
1.573692,-0.5848
1.583524,-0.609
1.593332,-0.6941
1.603852,-0.6403
1.613664,-0.6717
1.623492,-0.5503
1.63332,-0.3715
1.64316,-0.2387
1.653696,-0.1976
1.66354,-0.3014
1.673372,-0.1822
1.683376,0.2145
1.693396,0.3363
1.704144,0.2694
1.714152,0.2528
1.724172,0.3222
1.7342,0.1587
1.744128,-0.1134
1.754664,-0.2591
1.764512,-0.3941
1.774356,-0.528
1.784196,-0.5152
1.794032,-0.4331
1.80388,-0.4009
1.814376,-0.3412
1.824204,-0.342
1.83404,-0.4263
1.843892,-0.363
1.853732,-0.2056
1.864256,-0.1327
1.874108,-0.1296
1.88396,-0.0958
1.893956,0.1094
1.904648,0.1262
1.915352,0.0184
1.925364,0.0351
1.93538,0.0799
1.945408,0.1041
1.955432,0.036
1.966024,-0.0385
1.97588,-0.0914
1.98574,-0.2857
1.995576,-0.7384
2.005436,-0.8784
2.015964,-0.8646
2.0258,-1.0
2.0356,-0.9636
2.045428,-0.9206
2.055256,-0.724
2.065788,-0.3076
2.075636,-0.0327
2.0855,-0.0997
2.095328,-0.0525
2.10536,0.1542
2.116052,0.2777
2.126056,0.3394
2.136076,0.3868
2.14614,0.4002
2.156148,0.3036
2.166852,0.2204
2.176876,0.1395
2.186824,-0.2082
2.196668,-0.5581
2.2065,-0.6394
2.217036,-0.7574
2.226868,-0.7316
2.236724,-0.6003
2.246544,-0.6335
2.256384,-0.565
2.266924,-0.3934
2.276784,-0.2563
2.286648,-0.1389
2.296524,-0.2644
2.306372,-0.2381
2.317052,0.2526
2.327064,0.4503
2.337772,0.4628
2.349396,0.3847
2.3594,0.2929
2.370124,0.1413
2.380192,0.0256
2.390036,-0.1185
2.399884,-0.3594
2.409724,-0.6927
2.420264,-0.988
2.430076,-1.0
2.439888,-0.9639
2.449736,-0.9281
2.459572,-0.828
2.4701,-0.6306
2.47994,-0.5291
2.489784,-0.3684
2.499636,-0.2809
2.509492,-0.1262
2.520112,0.0018
2.53012,0.2017
2.540152,0.3771
2.550216,0.3383
2.560244,0.2548
2.570248,0.3714
2.580964,0.4747
2.591,0.4429
2.60104,0.1047
2.610868,-0.3562
2.620712,-0.472
2.63124,-0.5581
2.642636,-0.5006
2.652468,-0.398
2.662272,-0.3627
2.672108,-0.3218
2.68264,-0.33
2.69248,-0.376
2.702308,-0.3891
2.712152,-0.3831
2.721996,-0.3102
2.732528,-0.0901
2.742528,0.1623
2.753244,0.1897
2.76326,0.157
2.773276,0.0731
2.783992,0.0224
2.794016,0.0431
2.804024,0.0496
2.814048,0.0027
2.823888,-0.2149
2.834424,-0.459
2.84428,-0.6437
2.854116,-0.6693
2.863956,-0.6476
2.8738,-0.5642
2.88432,-0.4055
2.894164,-0.3026
2.903996,-0.2934
2.913844,-0.3017
2.923692,-0.3598
2.934196,-0.518
2.944028,-0.3836
2.953948,0.0355
2.963972,0.2516
2.974044,0.293
2.984736,0.2566
2.99476,0.1689
3.004788,0.0996
3.014812,0.0886
3.024792,-0.0033
3.035344,-0.1939
3.046748,-0.6329
3.056588,-0.8498
3.06642,-0.8918
3.076264,-0.6455
3.086772,-0.4354
3.096604,-0.3152
3.106456,-0.2315
3.1163,-0.2498
3.12614,-0.2634
3.13598,-0.274
3.146524,-0.1105
3.156508,0.1816
3.167216,0.2378
3.177208,0.2086
3.187216,0.1352
3.19792,0.1346
3.20794,0.0265
3.217772,-0.0355
3.227768,0.0813
3.237796,-0.0129
3.248328,-0.4029
3.258164,-0.9506
3.267996,-1.0
3.277792,-1.0
3.2876,-0.8825
3.298124,-0.5882
3.307968,-0.4918
3.317804,-0.5179
3.327652,-0.478
3.337472,-0.4375
3.348008,-0.3596
3.357868,-0.2435
3.367836,0.1877
3.377864,0.3795
3.38792,0.3696
3.398612,0.3402
3.408632,0.2679
3.418644,0.204
3.428664,0.2043
3.43868,0.1072
3.449264,-0.1161
3.460676,-0.4017
3.47052,-0.6083
3.48036,-0.8251
3.490208,-0.9126
3.500732,-0.7815
3.510576,-0.6346
3.520396,-0.574
3.530232,-0.4677
3.54008,-0.3779
3.549916,-0.3588
3.560468,-0.2686
3.570328,-0.3219
3.580168,-0.1996
3.59018,0.2539
3.600184,0.3943
3.611596,0.3388
3.621612,0.338
3.631616,0.2906
3.641628,0.1874
3.651664,0.1355
3.662336,-0.0371
3.672188,-0.2871
3.682028,-0.5356
3.691884,-0.6274
3.70172,-0.7814
3.71226,-0.9321
3.722104,-0.9825
3.73192,-0.9662
3.741772,-0.7794
3.751596,-0.5623
3.762124,-0.4039
3.77198,-0.2687
3.781824,-0.1591
3.791704,-0.1775
3.801612,0.0266
3.812316,0.3784
3.822332,0.4818
3.832396,0.4759
3.842428,0.3795
3.85246,0.258
3.863164,0.1772
3.873184,0.1275
3.883188,-0.0427
3.893028,-0.3671
3.902876,-0.6497
3.913384,-0.9244
3.923224,-1.0
3.933048,-0.873
3.942888,-0.8072
3.952728,-0.781
3.96324,-0.7059
3.973064,-0.4902
3.982924,-0.2579
3.9928,-0.0939
4.002636,-0.0779
4.01316,-0.3074
4.02306,0.116
4.033064,0.5499
4.043068,0.6034
4.05376,0.5986
4.064456,0.5771
4.076072,0.4304
4.08608,0.2418
4.096088,0.164
4.106108,0.118
4.116852,0.0213
4.128248,-0.9378
4.138076,-1.0
4.147892,-1.0
4.157712,-1.0
4.168212,-1.0
4.178052,-0.6046
4.187952,0.0771
4.198004,-0.039
4.207856,-0.2304
4.218368,-0.6134
4.228204,-0.858
4.238112,0.2743
4.248116,0.6305
4.25816,0.6389
4.268852,0.6076
4.278876,0.563
4.288888,0.5141
4.29892,0.4161
4.308928,0.4048
4.319648,0.3405
4.32964,-0.0553
4.339464,-0.5219
4.349316,-0.7285
4.359176,-0.8826
4.369724,-0.7789
4.379556,-0.6187
4.389396,-0.5629
4.399236,-0.5435
4.409084,-0.5525
4.419636,-0.5321
4.429492,-0.3933
4.439356,-0.1793
4.449272,0.0662
4.459292,0.297
4.4693,0.352
4.4807,0.3029
4.49232,0.1454
4.502264,-0.1154
4.51214,-0.0871
4.52214,0.0767
4.532852,0.1372
4.542932,0.0953
4.55284,-0.2643
4.562704,-0.7391
4.572572,-1.0
4.583076,-1.0
4.592896,-0.6712
4.602744,-0.4705
4.612592,-0.4138
4.622436,-0.4774
4.632972,-0.4678
4.64282,-0.4014
4.652664,-0.4218
4.662516,-0.2852
4.67244,0.035
4.683132,0.2937
4.693192,0.3357
4.703196,0.308
4.713212,0.2688
4.723224,0.2379
4.733916,0.1953
4.743952,0.1081
4.753848,-0.2218
4.7637,-0.4885
4.773524,-0.6633
4.78406,-0.6615
4.7939,-0.6144
4.803744,-0.6503
4.81358,-0.6805
4.823412,-0.4809
4.83392,-0.2713
4.843764,-0.1776
4.85364,-0.1777
4.863492,-0.2331
4.873348,-0.26
4.883188,-0.1579
4.893736,-0.0112
4.903772,0.2765
4.913772,0.3619
4.923772,0.3864
4.934488,0.372
4.945184,0.3352
4.956828,0.1739
4.966756,-0.164
4.976584,-0.4507
4.986432,-0.5521
4.996976,-0.5102
5.006816,-0.4355
5.01666,-0.5842
5.026488,-0.6298
5.036304,-0.5269
5.046836,-0.506
5.056652,-0.4911
5.066496,-0.2693
5.07636,-0.1189
5.08622,-0.2336
5.096744,-0.4473
5.106588,-0.2851
5.116452,-0.0491
5.126484,0.3875
5.136492,0.5256
5.14724,0.4934
5.15726,0.4117
5.167276,0.3497
5.1773,0.3122
5.187324,0.2455
5.19804,0.1214
5.207988,-0.0557
5.21784,-0.4101
5.227696,-0.7114
5.237532,-0.719
5.247376,-1.0
5.25788,-1.0
5.2677,-0.7597
5.277544,-0.6672
5.287396,-0.6697
5.297256,-0.6679
5.307812,-0.5021
5.317652,-0.1799
5.327512,-0.1057
5.337356,-0.0297
5.347404,0.2019
5.358112,0.4388
5.36886,0.4868
5.380488,0.3898
5.390508,0.2983
5.400536,0.1864
5.411268,0.1396
5.421288,0.0604
5.43116,-0.2355
5.440988,-0.5842
5.45084,-0.8904
5.461356,-1.0
5.47116,-1.0
5.480976,-0.8007
5.490792,-0.8137
5.500616,-0.7913
5.511152,-0.7915
5.520996,-0.6747
5.530832,-0.5126
5.540684,-0.2636
5.550552,-0.1346
5.5611,-0.031
5.571124,0.2182
5.581128,0.3993
5.591136,0.4674
5.601204,0.4458
5.611924,0.3646
5.62196,0.229
5.631944,-0.0791
5.6418,-0.2291
5.651676,-0.1738
5.66222,-0.2744
5.672056,-0.4894
5.68192,-0.6764
5.691756,-0.7709
5.701572,-0.8194
5.712108,-0.8623
5.721948,-0.7198
5.7318,-0.5773
5.741652,-0.3234
5.751496,-0.1939
5.762048,-0.1454
5.771924,-0.2499
5.781756,-0.8271
5.7916,-0.4942
5.801576,0.4887
5.812264,0.6584
5.822992,0.6839
5.833004,0.6657
5.842996,0.5998
5.853012,0.5027
5.86372,0.4226
5.87532,-0.0064
5.885144,-0.5001
5.894968,-0.5547
5.904812,-0.5767
5.915324,-0.7936
5.925176,-0.8703
5.934984,-0.9288
5.94482,-0.7916
5.954656,-0.5657
5.96448,-0.4381
5.975,-0.2318
5.984908,0.0025
5.994912,0.0289
6.004948,0.0135
6.014948,0.1606
6.025652,0.2438
6.035688,0.3081
6.045704,0.1481
6.055732,0.1014
6.065764,0.2386
6.07646,0.3158
6.08812,0.3079
6.09812,0.1309
6.108064,-0.1069
6.117928,-0.3108
6.128448,-0.4788
6.138304,-0.7025
6.148144,-0.8095
6.15798,-0.7892
6.1678,-0.5994
6.178292,-0.416
6.188132,-0.386
6.197972,-0.3982
6.207808,-0.4462
6.217628,-0.4961
6.228156,-0.3862
6.237996,-0.3018
6.247852,-0.1144
6.257856,0.1292
6.267868,0.2394
6.279284,0.1929
6.2893,0.1179
6.299316,0.0941
6.30934,0.1133
6.319364,0.1055
6.33006,0.2254
6.341704,0.1472
6.351604,-0.2352
6.361468,-0.4489
6.371324,-0.5763
6.381868,-0.5061
6.391688,-0.4991
6.401528,-0.4641
6.41136,-0.4959
6.421184,-0.4974
6.431728,-0.3823
6.441588,-0.3173
6.451436,-0.3262
6.461272,-0.2778
6.471124,-0.155
6.481796,0.1155
6.49186,0.1191
6.501888,0.1299
6.511908,0.1149
6.521936,0.0942
6.532648,0.036
6.54254,-0.0368
6.552384,-0.1312
6.562252,-0.2986
6.5721,-0.5494
6.58262,-0.5373
6.59246,-0.4179
6.602304,-0.5111
6.61214,-0.8168
6.62196,-0.9287
6.632484,-0.8359
6.64234,-0.4792
6.65218,-0.3802
6.662024,-0.1867
6.671888,-0.0913
6.681712,-0.276
6.692228,-0.3493
6.702164,0.1178
6.712168,0.2957
6.722168,0.5674
6.732188,0.657
6.743596,0.5849
6.753588,0.4284
6.7636,0.3118
6.773604,0.3951
6.783648,0.1954
6.794208,-0.4304
6.805616,-0.5827
6.81546,-0.8308
6.825276,-0.809
6.835072,-0.6233
6.845604,-0.5494
6.855424,-0.7275
6.86524,-0.8869
6.875048,-0.7306
6.884892,-0.4536
6.895472,0.0297
6.905512,0.3553
6.915504,0.4271
6.925556,0.3533
6.935564,0.1472
6.946272,0.1755
6.956296,0.2996
6.966328,0.2203
6.976356,0.1826
6.9864,0.046
6.996904,-0.2548
7.006748,-0.4917
7.016588,-0.5268
7.026428,-0.5626
7.036284,-0.6985
7.046796,-0.8177
7.056624,-0.7403
7.066452,-0.5466
7.0763,-0.4055
7.086136,-0.2941
7.096676,-0.2033
7.106504,-0.2935
7.116344,-0.4285
7.1262,-0.1541
7.136196,0.1363
7.146896,0.2616
7.15762,0.2645
7.16762,0.2021
7.177636,0.1344
7.187664,0.101
7.198376,0.1465
7.210008,0.022
7.219828,-0.4418
7.229672,-0.9465
7.239512,-0.9055
7.250052,-0.5981
7.259884,-0.5146
7.269728,-0.4646
7.279556,-0.5004
7.289392,-0.49
7.299888,-0.5975
7.309744,-0.6297
7.319576,-0.4474
7.329424,-0.33
7.33926,-0.115
7.349928,0.1785
7.359944,0.2747
7.370012,0.2257
7.380056,0.1651
7.39006,0.1936
7.400784,0.3354
7.410804,0.3607
7.420824,0.2377
7.430812,-0.0057
7.440648,-0.3009
7.450468,-0.4045
7.461004,-0.4859
7.470844,-0.5429
7.480688,-0.4278
7.49052,-0.3055
7.500344,-0.3268
7.510876,-0.4179
7.520716,-0.4982
7.53054,-0.4592
7.54038,-0.3513
7.550236,-0.2257
7.560772,-0.022
7.570816,0.0994
7.581032,0.1224
7.591044,0.0503
7.601044,0.0552
7.611756,0.0654
7.621772,0.0342
7.631772,-0.0233
7.641644,-0.1815
7.651508,-0.3981
7.662036,-0.6249
7.671888,-0.759
7.681716,-0.7766
7.691552,-0.713
7.701372,-0.5916
7.7119,-0.4898
7.721724,-0.5582
7.731564,-0.4782
7.741404,-0.2152
7.75126,-0.0421
7.761108,-0.0653
7.77164,-0.1186
7.781556,0.051
7.79156,0.2402
7.801592,0.3164
7.81168,0.3002
7.822396,0.2679
7.83242,0.2611
7.842464,0.167
7.8525,0.0557
7.862512,0.0468
7.87308,-0.224
7.882912,-0.4315
7.892736,-0.5267
7.902568,-0.8145
7.912376,-1.0
7.92288,-1.0
7.932696,-0.8722
7.942536,-0.4782
7.952364,-0.2899
7.962216,-0.2466
7.97274,-0.2028
7.982584,-0.2764
7.992432,-0.2714
8.002285,-0.0043
8.01232,0.2523
8.023004,0.3367
8.033717,0.2538
8.043725,0.2082
8.05374,0.2587
8.063753,0.2371
8.074444,0.1561
8.085992,-0.1021
8.095821,-0.3437
8.105661,-0.5014
8.11552,-0.64
8.126008,-0.6898
8.135816,-0.6294
8.145652,-0.6055
8.155476,-0.5833
8.165312,-0.5216
8.175148,-0.4682
8.185656,-0.4678
8.195492,-0.3394
8.205332,-0.1999
8.215196,-0.151
8.225145,0.1315
8.235853,0.294
8.245932,0.2922
8.255952,0.22
8.26596,0.1506
8.275993,0.061
8.286712,0.051
8.296705,-0.0202
8.306556,-0.1891
8.3164,-0.4827
8.326236,-0.8359
8.336756,-0.9461
8.346585,-0.817
8.356409,-0.6751
8.366252,-0.5967
8.376105,-0.5219
8.38666,-0.4705
8.396485,-0.4121
8.406345,-0.3771
8.416185,-0.386
8.42602,-0.4355
8.436585,0.0925
8.446617,0.4101
8.457328,0.4513
8.467345,0.3366
8.477353,0.2001
8.48806,0.2196
8.49968,0.1345
8.509629,-0.0663
8.51948,-0.2519
8.52934,-0.5277
8.539876,-0.6065
8.549749,-0.6409
8.55958,-0.5885
8.569416,-0.4842
8.579249,-0.743
8.589773,-0.8653
8.599617,-0.6373
8.60946,-0.4298
8.619304,-0.349
8.629144,-0.2566
8.639688,-0.2361
8.649553,-0.1205
8.659552,0.2715
8.669581,0.4241
8.679656,0.4093
8.689668,0.3748
8.700381,0.2908
8.71042,0.1056
8.720356,-0.0188
8.730249,-0.1189
8.74012,-0.2819
8.750653,-0.7557
8.760508,-1.0
8.770328,-1.0
8.780164,-1.0
8.789973,-0.9502
8.800508,-0.9374
8.810344,-0.9058
8.820193,-0.749
8.83004,-0.6723
8.839877,-0.4283
8.850424,-0.1818
8.86028,-0.3361
8.870121,-0.4625
8.880012,0.1534
8.890032,0.4513
8.900736,0.4895
8.910753,0.5158
8.921481,0.4768
8.931496,0.4134
8.941504,0.4349
8.952213,0.4817
8.963849,0.0011
8.97368,-0.5182
8.983532,-0.6425
8.993389,-0.5457
9.003912,-0.4438
9.013745,-0.4557
9.023572,-0.5305
9.0334,-0.5344
9.043232,-0.4666
9.053745,-0.4765
9.063576,-0.3459
9.073425,-0.165
9.083289,-0.1551
9.093132,-0.0162
9.103888,0.1963
9.113957,0.219
9.12396,0.1324
9.13398,0.1208
9.144001,0.1473
9.154712,0.1505
9.164752,0.077
9.174693,-0.0278
9.18456,-0.1652
9.194393,-0.3841
9.204936,-0.6474
9.214793,-0.7636
9.224664,-0.8152
9.234508,-0.8086
9.244328,-0.73
9.254148,-0.5963
9.26468,-0.5048
9.2745,-0.3072
9.284353,-0.0713
9.294197,-0.018
9.304044,-0.1007
9.314644,0.0068
9.324676,0.0612
9.334696,0.116
9.344709,0.1854
9.355421,0.1658
9.366112,0.1775
9.376136,0.1435
9.386173,0.0415
9.396073,-0.1495
9.405917,-0.4673
9.416453,-0.6823
9.427845,-0.7099
9.437672,-0.6056
9.447508,-0.5258
9.457337,-0.4598
9.467852,-0.4078
9.477677,-0.3772
9.487545,-0.2897
9.497405,-0.1973
9.507268,-0.2056
9.517781,-0.2504
9.527636,-0.0732
9.537625,0.1608
9.547636,0.2554
9.557717,0.2461
9.568428,0.2064
9.578444,0.1342
9.588453,-0.0067
9.598328,-0.0924
9.60818,-0.1424
9.618733,-0.2588
9.628564,-0.739
9.638397,-1.0
9.648224,-1.0
9.658033,-1.0
9.668513,-1.0
9.67834,-1.0
9.688164,-0.9225
9.69802,-0.4855
9.707884,-0.2609
9.717717,-0.0763
9.728412,0.0347
9.738352,0.0054
9.74836,0.2171
9.75838,0.4067
9.768384,0.519
9.779781,0.523
9.789793,0.477
9.799797,0.493
9.809804,0.4101
9.819828,0.2158
9.830533,0.0338
9.84194,-0.4401
9.85178,-0.5793
9.861628,-0.7679
9.871468,-0.9201
9.88198,-1.0
9.891784,-1.0
9.901604,-0.9564
9.911429,-0.8304
9.921253,-0.6754
9.931797,-0.448
9.941629,-0.3059
9.951488,-0.0688
9.961528,0.2089
9.971545,0.3924
9.982293,0.4405
9.992321,0.409
10.002345,0.3333
10.012453,0.2602
10.022561,0.1474
10.033281,-0.0556
10.0432,-0.271
10.053105,-0.422
10.063013,-0.4858
10.072909,-0.5302
10.083497,-0.6888
10.0934,-0.7226
10.103284,-0.8586
10.113188,-0.7456
10.123105,-0.5654
10.133716,-0.3689
10.14364,-0.2464
10.153565,-0.2504
10.163469,-0.2094
10.173393,-0.0133
10.183505,0.308
10.194265,0.3917
10.205057,0.3447
10.216756,0.2101
10.226857,0.1133
10.236956,0.0775
10.249313,-0.0058
10.259252,-0.1356
10.269168,-0.4157
10.279101,-0.7502
10.289,-1.0
10.299556,-1.0
10.309432,-1.0
10.3193,-0.9955
10.329189,-0.7658
10.339097,-0.471
10.349708,-0.279
10.359621,-0.1602
10.369544,-0.0423
10.379481,-0.0961
10.389405,-0.0793
10.400156,0.1844
10.411832,0.4137
10.421988,0.3989
10.432105,0.3347
10.442209,0.2189
10.453001,0.1257
10.464709,0.2022
10.474804,0.165
10.484869,-0.0165
10.494776,-0.4252
10.5054,-0.7515
10.515313,-0.8566
10.525248,-0.7895
10.535161,-0.8234
10.545081,-0.9357
10.555681,-0.8236
10.567156,-0.6211
10.577084,-0.4313
10.587017,-0.1447
10.596937,-0.054
10.607537,-0.1247
10.617465,-0.2297
10.62756,0.2849
10.637648,0.458
10.647732,0.5192
10.659224,0.4999
10.670912,0.404
10.680993,0.3589
10.691088,0.2065
10.701112,-0.1459
10.711721,-0.4829
10.723204,-0.5683
10.73312,-0.6002
10.743028,-0.6741
10.752904,-0.6523
