Time (s),PPG Value
0.559616,-0.1934
0.570264,-0.1957
0.580244,-0.1972
0.590188,-0.1981
0.60014,-0.1988
0.610072,-0.1992
0.620692,-0.1995
0.630664,-0.1997
0.640628,-0.1998
0.6506,-0.1999
0.660572,-0.1999
0.670532,-0.1999
0.681216,-0.2
0.69118,-0.2
0.70114,-0.2
0.71112,-0.2
0.72108,-0.2
0.73174,-0.2
0.7417,-0.2
0.751644,-0.2
0.7616,-0.2
0.771556,-0.2
0.782224,-0.2
0.792224,-0.2
0.802196,-0.2
0.812192,-0.2
0.822192,-0.2
0.832892,-0.2
0.844508,-0.2
0.854528,-0.2
0.86454,-0.2
0.874556,-0.2
0.88526,-0.2
0.895272,-0.2
0.905272,-0.2
0.915284,-0.2
0.925296,-0.2
0.935984,-0.2
0.9476,-0.2
0.957608,-0.2
0.96762,-0.2
0.977628,-0.2
0.988328,-0.2
0.999952,-0.2
1.00996,-0.2
1.019968,-0.2
1.029956,-0.2
1.040644,-0.2
1.050644,-0.2
1.060644,-0.2
1.070652,-0.2
1.080624,-0.2
1.0913,-0.2
1.102896,-0.2
1.112896,-0.2
1.1229,-0.2
1.132904,-0.2
1.143568,-0.2
1.153556,-0.2
1.163552,-0.2
1.173532,-0.2
1.183516,-0.2
1.194196,-0.2
1.205776,-0.2
1.215748,-0.2
1.225756,-0.2
1.235756,-0.2
1.246452,-0.2
1.256464,-0.2
1.266468,-0.2
1.276456,-0.2
1.28644,-0.2
1.29712,-0.2
1.308736,-0.2
1.318736,-0.2
1.328744,-0.2
1.338728,-0.2
1.349412,-0.2
1.359396,-0.2
1.369384,-0.2
1.379376,-0.2
1.389364,-0.2
1.400052,-0.2
1.411628,-0.2
1.421612,-0.2
1.4316,-0.2
1.441576,-0.2
1.45226,-0.2
1.462252,-0.2
1.472256,-0.2
1.482236,-0.2
1.492224,-0.2
1.502908,-0.2
1.51452,-0.2
1.524516,-0.2
1.534504,-0.2
1.544492,-0.2
1.555168,-0.2
1.565164,-0.2
1.57516,-0.2
1.585136,-0.2
1.59512,-0.2
1.605796,-0.2
1.617384,-0.2
1.627372,-0.2
1.637348,-0.2
1.647328,-0.2
1.658008,-0.2
1.668,-0.2
1.677988,-0.2
1.687976,-0.2
1.69796,-0.2
1.708644,-0.2
1.720228,-0.2
1.730212,-0.2
1.740196,-0.2
1.750188,-0.2
1.760876,-0.2
1.77088,-0.2
1.780868,-0.2
1.790856,-0.2
1.800856,-0.2
1.811528,-0.2
1.823116,-0.2
1.833104,-0.2
1.8431,-0.2
1.853092,-0.2
1.863756,-0.2
1.873744,-0.2
1.883736,-0.2
1.893744,-0.2
1.903744,-0.2
1.913732,-0.2
1.92442,-0.2
1.935992,-0.2
1.945984,-0.2
1.955976,-0.2
1.965988,-0.2
1.9767,-0.2
1.986708,-0.2
1.996704,-0.2
2.006696,-0.2
2.016684,-0.2
2.02736,-0.2
2.038944,-0.2
2.048916,-0.2
2.0589,-0.2
2.068876,-0.2
2.079552,-0.2
2.089556,-0.2
2.099536,-0.2
2.109528,-0.2
2.119512,-0.2
2.130204,-0.2
2.141804,-0.2
2.151788,-0.2
2.16178,-0.2
2.171756,-0.2
2.182448,-0.2
2.192448,-0.2
2.202444,-0.2
2.212452,-0.2
2.222444,-0.2
2.233132,-0.2
2.244732,-0.2
2.254712,-0.2
2.2647,-0.2
2.27468,-0.2
2.285352,-0.2
2.295344,-0.2
2.305316,-0.2
2.31532,-0.2
2.325304,-0.2
2.336008,-0.2
2.347604,-0.2
2.357588,-0.2
2.36758,-0.2
2.377564,-0.2
2.388252,-0.2
2.398256,-0.2
2.408248,-0.2
2.418252,-0.2
2.42826,-0.2
2.438936,-0.2
2.450528,-0.2
2.460504,-0.2
2.470484,-0.2
2.480468,-0.2
2.49114,-0.2
2.50114,-0.2
2.51112,-0.2
2.521108,-0.2
2.531096,-0.2
2.5418,-0.2
2.553412,-0.2
2.56342,-0.2
0.010604,-0.2
0.017292,-0.2
0.025452,-0.2
0.03362,-0.2
0.041796,-0.2
0.0522,-0.2
0.061904,-0.2
0.071592,-0.2
0.081308,-0.2
0.089472,-0.2
0.09918,-0.2
0.109588,-0.2
0.119308,-0.2
0.12902,-0.2
0.137224,-0.2
0.146952,-0.2
0.157356,-0.2
0.16708,-0.2
0.1768,-0.2
0.184988,-0.2
0.194708,-0.2
0.204448,-0.2
0.214856,-0.2
0.226112,-0.2
0.235856,-0.2
0.245628,-0.2
0.255384,-0.2
0.265848,-0.2
0.275624,-0.2
0.2854,-0.2
0.295184,-0.2
0.304964,-0.2
0.315448,-0.2
0.325232,-0.2
0.335016,-0.2
0.343264,1.0
0.353032,1.0
0.363508,1.0
0.3733,1.0
0.38306,1.0
0.39284,1.0
0.4026,1.0
0.410816,1.0
0.421284,1.0
0.431076,-0.1193
0.440936,-0.3277
0.45076,-0.3802
0.460588,-0.4869
0.471108,-0.5776
0.480928,-0.5589
0.49076,-0.4845
0.50058,-0.4888
0.508864,-0.4248
0.519408,-0.3505
0.52924,-0.3152
0.539088,-0.3238
0.548924,-0.3056
0.558776,-0.1544
0.569444,0.1307
0.57946,0.2596
0.589652,0.1635
0.599668,0.0852
0.609668,0.1274
0.620352,0.1975
0.630372,0.2165
0.640376,0.1475
0.650368,-0.0437
0.6602,-0.2896
0.670728,-0.4642
0.680568,-0.7257
0.690388,-0.8804
0.700196,-0.7872
0.710036,-0.6447
0.719856,-0.5281
0.730404,-0.3654
0.740244,-0.119
0.750184,0.041
0.76016,-0.0126
0.77,-0.1756
0.780532,-0.2855
0.790384,-0.0639
0.800412,0.2891
0.810448,0.3279
0.820456,0.214
0.831144,0.2605
0.841156,0.3247
0.851176,0.3839
0.8612,0.2871
0.871184,-0.0539
0.881688,-0.3878
0.891524,-0.551
0.90136,-0.5927
0.911192,-0.5303
0.921012,-0.4331
0.931516,-0.3649
0.94134,-0.3208
0.951156,-0.3053
0.960984,-0.3304
0.970832,-0.3791
0.981352,-0.3849
0.991176,-0.2942
1.001032,-0.2134
1.010896,-0.0056
1.0209,0.1319
1.031796,0.1509
1.041804,0.0674
1.051716,-0.0705
1.061572,-0.1971
1.071432,-0.0771
1.082044,0.0147
1.092072,0.0444
1.102044,-0.0134
1.1119,-0.1409
1.121744,-0.3248
1.132276,-0.7368
1.142128,-0.7575
1.151944,-0.7198
1.16178,-0.5796
1.171608,-0.5934
1.181448,-0.6169
1.191988,-0.5883
1.201836,-0.4949
1.211676,-0.2829
1.221532,-0.1418
1.2314,-0.3168
1.241944,-0.0176
1.251992,0.316
1.261992,0.3841
1.271996,0.4007
1.282052,0.397
1.29276,0.3838
1.30278,0.3141
1.312812,0.1407
1.322708,-0.1531
1.332552,-0.3055
1.343052,-0.4026
1.352884,-0.5379
1.362728,-0.6679
1.372572,-0.7153
1.382392,-0.7355
1.392924,-0.6884
1.402752,-0.6166
1.412612,-0.4172
1.422468,-0.2407
1.432308,-0.2298
1.442156,-0.272
1.452676,-0.2702
1.462528,-0.0079
1.472564,0.1275
1.482772,0.1311
1.49278,0.0769
1.503484,0.2169
1.513544,0.2894
1.523556,0.2164
1.533584,0.0828
1.54348,-0.0882
1.554004,-0.2786
1.563864,-0.4212
1.573692,-0.5848
1.583524,-0.609
1.593332,-0.6941
1.603852,-0.6403
1.613664,-0.6717
1.623492,-0.5503
1.63332,-0.3715
1.64316,-0.2387
1.653696,-0.1976
1.66354,-0.3014
1.673372,-0.1822
1.683376,0.2145
1.693396,0.3363
1.704144,0.2694
1.714152,0.2528
1.724172,0.3222
1.7342,0.1587
1.744128,-0.1134
1.754664,-0.2591
1.764512,-0.3941
1.774356,-0.528
1.784196,-0.5152
1.794032,-0.4331
1.80388,-0.4009
1.814376,-0.3412
1.824204,-0.342
1.83404,-0.4263
1.843892,-0.363
1.853732,-0.2056
1.864256,-0.1327
1.874108,-0.1296
1.88396,-0.0958
1.893956,0.1094
1.904648,0.1262
1.915352,0.0184
1.925364,0.0351
1.93538,0.0799
1.945408,0.1041
1.955432,0.036
1.966024,-0.0385
1.97588,-0.0914
1.98574,-0.2857
1.995576,-0.7384
2.005436,-0.8784
2.015964,-0.8646
2.0258,-1.0
2.0356,-0.9636
2.045428,-0.9206
2.055256,-0.724
2.065788,-0.3076
2.075636,-0.0327
2.0855,-0.0997
2.095328,-0.0525
2.10536,0.1542
2.116052,0.2777
2.126056,0.3394
2.136076,0.3868
2.14614,0.4002
2.156148,0.3036
2.166852,0.2204
2.176876,0.1395
2.186824,-0.2082
2.196668,-0.5581
2.2065,-0.6394
2.217036,-0.7574
2.226868,-0.7316
2.236724,-0.6003
2.246544,-0.6335
2.256384,-0.565
2.266924,-0.3934
2.276784,-0.2563
2.286648,-0.1389
2.296524,-0.2644
2.306372,-0.2381
2.317052,0.2526
2.327064,0.4503
2.337772,0.4628
2.349396,0.3847
2.3594,0.2929
2.370124,0.1413
2.380192,0.0256
2.390036,-0.1185
2.399884,-0.3594
2.409724,-0.6927
2.420264,-0.988
2.430076,-1.0
2.439888,-0.9639
2.449736,-0.9281
2.459572,-0.828
2.4701,-0.6306
2.47994,-0.5291
2.489784,-0.3684
2.499636,-0.2809
2.509492,-0.1262
2.520112,0.0018
2.53012,0.2017
2.540152,0.3771
2.550216,0.3383
2.560244,0.2548
2.570248,0.3714
2.580964,0.4747
2.591,0.4429
2.60104,0.1047
2.610868,-0.3562
2.620712,-0.472
2.63124,-0.5581
2.642636,-0.5006
2.652468,-0.398
2.662272,-0.3627
2.672108,-0.3218
2.68264,-0.33
2.69248,-0.376
2.702308,-0.3891
2.712152,-0.3831
2.721996,-0.3102
2.732528,-0.0901
2.742528,0.1623
2.753244,0.1897
2.76326,0.157
2.773276,0.0731
2.783992,0.0224
2.794016,0.0431
2.804024,0.0496
2.814048,0.0027
2.823888,-0.2149
2.834424,-0.459
2.84428,-0.6437
2.854116,-0.6693
2.863956,-0.6476
2.8738,-0.5642
2.88432,-0.4055
2.894164,-0.3026
2.903996,-0.2934
2.913844,-0.3017
2.923692,-0.3598
2.934196,-0.518
2.944028,-0.3836
2.953948,0.0355
2.963972,0.2516
2.974044,0.293
2.984736,0.2566
2.99476,0.1689
3.004788,0.0996
3.014812,0.0886
3.024792,-0.0033
3.035344,-0.1939
3.046748,-0.6329
3.056588,-0.8498
3.06642,-0.8918
3.076264,-0.6455
3.086772,-0.4354
3.096604,-0.3152
3.106456,-0.2315
3.1163,-0.2498
3.12614,-0.2634
3.13598,-0.274
3.146524,-0.1105
3.156508,0.1816
3.167216,0.2378
3.177208,0.2086
3.187216,0.1352
3.19792,0.1346
3.20794,0.0265
3.217772,-0.0355
3.227768,0.0813
3.237796,-0.0129
3.248328,-0.4029
3.258164,-0.9506
3.267996,-1.0
3.277792,-1.0
3.2876,-0.8825
3.298124,-0.5882
3.307968,-0.4918
3.317804,-0.5179
3.327652,-0.478
3.337472,-0.4375
3.348008,-0.3596
3.357868,-0.2435
3.367836,0.1877
3.377864,0.3795
3.38792,0.3696
3.398612,0.3402
3.408632,0.2679
3.418644,0.204
3.428664,0.2043
3.43868,0.1072
3.449264,-0.1161
3.460676,-0.4017
3.47052,-0.6083
3.48036,-0.8251
3.490208,-0.9126
3.500732,-0.7815
3.510576,-0.6346
3.520396,-0.574
3.530232,-0.4677
3.54008,-0.3779
3.549916,-0.3588
3.560468,-0.2686
3.570328,-0.3219
3.580168,-0.1996
3.59018,0.2539
3.600184,0.3943
3.611596,0.3388
3.621612,0.338
3.631616,0.2906
3.641628,0.1874
3.651664,0.1355
3.662336,-0.0371
3.672188,-0.2871
3.682028,-0.5356
3.691884,-0.6274
3.70172,-0.7814
3.71226,-0.9321
3.722104,-0.9825
3.73192,-0.9662
3.741772,-0.7794
3.751596,-0.5623
3.762124,-0.4039
3.77198,-0.2687
3.781824,-0.1591
3.791704,-0.1775
3.801612,0.0266
3.812316,0.3784
3.822332,0.4818
3.832396,0.4759
3.842428,0.3795
3.85246,0.258
3.863164,0.1772
3.873184,0.1275
3.883188,-0.0427
3.893028,-0.3671
3.902876,-0.6497
3.913384,-0.9244
3.923224,-1.0
3.933048,-0.873
3.942888,-0.8072
3.952728,-0.781
3.96324,-0.7059
3.973064,-0.4902
3.982924,-0.2579
3.9928,-0.0939
4.002636,-0.0779
4.01316,-0.3074
4.02306,0.116
4.033064,0.5499
4.043068,0.6034
4.05376,0.5986
4.064456,0.5771
4.076072,0.4304
4.08608,0.2418
4.096088,0.164
4.106108,0.118
4.116852,0.0213
4.128248,-0.9378
4.138076,-1.0
4.147892,-1.0
4.157712,-1.0
4.168212,-1.0
4.178052,-0.6046
4.187952,0.0771
4.198004,-0.039
4.207856,-0.2304
4.218368,-0.6134
4.228204,-0.858
4.238112,0.2743
4.248116,0.6305
4.25816,0.6389
4.268852,0.6076
4.278876,0.563
4.288888,0.5141
4.29892,0.4161
4.308928,0.4048
4.319648,0.3405
4.32964,-0.0553
4.339464,-0.5219
4.349316,-0.7285
4.359176,-0.8826
4.369724,-0.7789
4.379556,-0.6187
4.389396,-0.5629
4.399236,-0.5435
4.409084,-0.5525
4.419636,-0.5321
4.429492,-0.3933
4.439356,-0.1793
4.449272,0.0662
4.459292,0.297
4.4693,0.352
4.4807,0.3029
4.49232,0.1454
4.502264,-0.1154
4.51214,-0.0871
4.52214,0.0767
4.532852,0.1372
4.542932,0.0953
4.55284,-0.2643
4.562704,-0.7391
4.572572,-1.0
4.583076,-1.0
4.592896,-0.6712
4.602744,-0.4705
4.612592,-0.4138
4.622436,-0.4774
4.632972,-0.4678
4.64282,-0.4014
4.652664,-0.4218
4.662516,-0.2852
4.67244,0.035
4.683132,0.2937
4.693192,0.3357
4.703196,0.308
4.713212,0.2688
4.723224,0.2379
4.733916,0.1953
4.743952,0.1081
4.753848,-0.2218
4.7637,-0.4885
4.773524,-0.6633
4.78406,-0.6615
4.7939,-0.6144
4.803744,-0.6503
4.81358,-0.6805
4.823412,-0.4809
4.83392,-0.2713
4.843764,-0.1776
4.85364,-0.1777
4.863492,-0.2331
4.873348,-0.26
4.883188,-0.1579
4.893736,-0.0112
4.903772,0.2765
4.913772,0.3619
4.923772,0.3864
4.934488,0.372
4.945184,0.3352
4.956828,0.1739
4.966756,-0.164
4.976584,-0.4507
4.986432,-0.5521
4.996976,-0.5102
5.006816,-0.4355
5.01666,-0.5842
5.026488,-0.6298
5.036304,-0.5269
5.046836,-0.506
5.056652,-0.4911
5.066496,-0.2693
5.07636,-0.1189
5.08622,-0.2336
5.096744,-0.4473
5.106588,-0.2851
5.116452,-0.0491
5.126484,0.3875
5.136492,0.5256
5.14724,0.4934
5.15726,0.4117
5.167276,0.3497
5.1773,0.3122
5.187324,0.2455
5.19804,0.1214
5.207988,-0.0557
5.21784,-0.4101
5.227696,-0.7114
5.237532,-0.719
5.247376,-1.0
5.25788,-1.0
5.2677,-0.7597
5.277544,-0.6672
5.287396,-0.6697
5.297256,-0.6679
5.307812,-0.5021
5.317652,-0.1799
5.327512,-0.1057
5.337356,-0.0297
5.347404,0.2019
5.358112,0.4388
5.36886,0.4868
5.380488,0.3898
5.390508,0.2983
5.400536,0.1864
5.411268,0.1396
5.421288,0.0604
5.43116,-0.2355
5.440988,-0.5842
5.45084,-0.8904
5.461356,-1.0
5.47116,-1.0
5.480976,-0.8007
5.490792,-0.8137
5.500616,-0.7913
5.511152,-0.7915
5.520996,-0.6747
5.530832,-0.5126
5.540684,-0.2636
5.550552,-0.1346
5.5611,-0.031
5.571124,0.2182
5.581128,0.3993
5.591136,0.4674
5.601204,0.4458
5.611924,0.3646
5.62196,0.229
5.631944,-0.0791
5.6418,-0.2291
5.651676,-0.1738
5.66222,-0.2744
5.672056,-0.4894
5.68192,-0.6764
5.691756,-0.7709
5.701572,-0.8194
5.712108,-0.8623
5.721948,-0.7198
5.7318,-0.5773
5.741652,-0.3234
5.751496,-0.1939
5.762048,-0.1454
5.771924,-0.2499
5.781756,-0.8271
5.7916,-0.4942
5.801576,0.4887
5.812264,0.6584
5.822992,0.6839
5.833004,0.6657
5.842996,0.5998
5.853012,0.5027
5.86372,0.4226
5.87532,-0.0064
5.885144,-0.5001
5.894968,-0.5547
5.904812,-0.5767
5.915324,-0.7936
5.925176,-0.8703
5.934984,-0.9288
5.94482,-0.7916
5.954656,-0.5657
5.96448,-0.4381
5.975,-0.2318
5.984908,0.0025
5.994912,0.0289
6.004948,0.0135
6.014948,0.1606
6.025652,0.2438
6.035688,0.3081
6.045704,0.1481
6.055732,0.1014
6.065764,0.2386
6.07646,0.3158
6.08812,0.3079
6.09812,0.1309
6.108064,-0.1069
6.117928,-0.3108
6.128448,-0.4788
6.138304,-0.7025
6.148144,-0.8095
6.15798,-0.7892
6.1678,-0.5994
6.178292,-0.416
6.188132,-0.386
6.197972,-0.3982
6.207808,-0.4462
6.217628,-0.4961
6.228156,-0.3862
6.237996,-0.3018
6.247852,-0.1144
6.257856,0.1292
6.267868,0.2394
6.279284,0.1929
6.2893,0.1179
6.299316,0.0941
6.30934,0.1133
6.319364,0.1055
6.33006,0.2254
6.341704,0.1472
6.351604,-0.2352
6.361468,-0.4489
6.371324,-0.5763
6.381868,-0.5061
6.391688,-0.4991
6.401528,-0.4641
6.41136,-0.4959
6.421184,-0.4974
6.431728,-0.3823
6.441588,-0.3173
6.451436,-0.3262
6.461272,-0.2778
6.471124,-0.155
6.481796,0.1155
6.49186,0.1191
6.501888,0.1299
6.511908,0.1149
6.521936,0.0942
6.532648,0.036
6.54254,-0.0368
6.552384,-0.1312
6.562252,-0.2986
6.5721,-0.5494
6.58262,-0.5373
6.59246,-0.4179
6.602304,-0.5111
6.61214,-0.8168
6.62196,-0.9287
6.632484,-0.8359
6.64234,-0.4792
6.65218,-0.3802
6.662024,-0.1867
6.671888,-0.0913
6.681712,-0.276
6.692228,-0.3493
6.702164,0.1178
6.712168,0.2957
6.722168,0.5674
6.732188,0.657
6.743596,0.5849
6.753588,0.4284
6.7636,0.3118
6.773604,0.3951
6.783648,0.1954
6.794208,-0.4304
6.805616,-0.5827
6.81546,-0.8308
6.825276,-0.809
6.835072,-0.6233
6.845604,-0.5494
6.855424,-0.7275
6.86524,-0.8869
6.875048,-0.7306
6.884892,-0.4536
6.895472,0.0297
6.905512,0.3553
6.915504,0.4271
6.925556,0.3533
6.935564,0.1472
6.946272,0.1755
6.956296,0.2996
6.966328,0.2203
6.976356,0.1826
6.9864,0.046
6.996904,-0.2548
7.006748,-0.4917
7.016588,-0.5268
7.026428,-0.5626
7.036284,-0.6985
7.046796,-0.8177
7.056624,-0.7403
7.066452,-0.5466
7.0763,-0.4055
7.086136,-0.2941
7.096676,-0.2033
7.106504,-0.2935
7.116344,-0.4285
7.1262,-0.1541
7.136196,0.1363
7.146896,0.2616
7.15762,0.2645
7.16762,0.2021
7.177636,0.1344
7.187664,0.101
7.198376,0.1465
7.210008,0.022
7.219828,-0.4418
7.229672,-0.9465
7.239512,-0.9055
7.250052,-0.5981
7.259884,-0.5146
7.269728,-0.4646
7.279556,-0.5004
7.289392,-0.49
7.299888,-0.5975
7.309744,-0.6297
7.319576,-0.4474
7.329424,-0.33
7.33926,-0.115
7.349928,0.1785
7.359944,0.2747
7.370012,0.2257
7.380056,0.1651
7.39006,0.1936
7.400784,0.3354
7.410804,0.3607
7.420824,0.2377
7.430812,-0.0057
7.440648,-0.3009
7.450468,-0.4045
7.461004,-0.4859
7.470844,-0.5429
7.480688,-0.4278
7.49052,-0.3055
7.500344,-0.3268
7.510876,-0.4179
7.520716,-0.4982
7.53054,-0.4592
7.54038,-0.3513
7.550236,-0.2257
7.560772,-0.022
7.570816,0.0994
7.581032,0.1224
7.591044,0.0503
7.601044,0.0552
7.611756,0.0654
7.621772,0.0342
7.631772,-0.0233
7.641644,-0.1815
7.651508,-0.3981
7.662036,-0.6249
7.671888,-0.759
7.681716,-0.7766
7.691552,-0.713
7.701372,-0.5916
7.7119,-0.4898
7.721724,-0.5582
7.731564,-0.4782
7.741404,-0.2152
7.75126,-0.0421
7.761108,-0.0653
7.77164,-0.1186
7.781556,0.051
7.79156,0.2402
7.801592,0.3164
7.81168,0.3002
7.822396,0.2679
7.83242,0.2611
7.842464,0.167
7.8525,0.0557
7.862512,0.0468
7.87308,-0.224
7.882912,-0.4315
7.892736,-0.5267
7.902568,-0.8145
7.912376,-1.0
7.92288,-1.0
7.932696,-0.8722
7.942536,-0.4782
7.952364,-0.2899
7.962216,-0.2466
7.97274,-0.2028
7.982584,-0.2764
7.992432,-0.2714
8.002285,-0.0043
8.01232,0.2523
8.023004,0.3367
8.033717,0.2538
8.043725,0.2082
8.05374,0.2587
8.063753,0.2371
8.074444,0.1561
8.085992,-0.1021
8.095821,-0.3437
8.105661,-0.5014
8.11552,-0.64
8.126008,-0.6898
8.135816,-0.6294
8.145652,-0.6055
8.155476,-0.5833
8.165312,-0.5216
8.175148,-0.4682
8.185656,-0.4678
8.195492,-0.3394
8.205332,-0.1999
8.215196,-0.151
8.225145,0.1315
8.235853,0.294
8.245932,0.2922
8.255952,0.22
8.26596,0.1506
8.275993,0.061
8.286712,0.051
8.296705,-0.0202
8.306556,-0.1891
8.3164,-0.4827
8.326236,-0.8359
8.336756,-0.9461
8.346585,-0.817
8.356409,-0.6751
8.366252,-0.5967
8.376105,-0.5219
8.38666,-0.4705
8.396485,-0.4121
8.406345,-0.3771
8.416185,-0.386
8.42602,-0.4355
8.436585,0.0925
8.446617,0.4101
8.457328,0.4513
8.467345,0.3366
8.477353,0.2001
8.48806,0.2196
8.49968,0.1345
8.509629,-0.0663
8.51948,-0.2519
8.52934,-0.5277
8.539876,-0.6065
8.549749,-0.6409
8.55958,-0.5885
8.569416,-0.4842
8.579249,-0.743
8.589773,-0.8653
8.599617,-0.6373
8.60946,-0.4298
8.619304,-0.349
8.629144,-0.2566
8.639688,-0.2361
8.649553,-0.1205
8.659552,0.2715
8.669581,0.4241
8.679656,0.4093
8.689668,0.3748
8.700381,0.2908
8.71042,0.1056
8.720356,-0.0188
8.730249,-0.1189
8.74012,-0.2819
8.750653,-0.7557
8.760508,-1.0
8.770328,-1.0
8.780164,-1.0
8.789973,-0.9502
8.800508,-0.9374
8.810344,-0.9058
8.820193,-0.749
8.83004,-0.6723
8.839877,-0.4283
8.850424,-0.1818
8.86028,-0.3361
8.870121,-0.4625
8.880012,0.1534
8.890032,0.4513
8.900736,0.4895
8.910753,0.5158
8.921481,0.4768
8.931496,0.4134
8.941504,0.4349
8.952213,0.4817
8.963849,0.0011
8.97368,-0.5182
8.983532,-0.6425
8.993389,-0.5457
9.003912,-0.4438
9.013745,-0.4557
9.023572,-0.5305
9.0334,-0.5344
9.043232,-0.4666
9.053745,-0.4765
9.063576,-0.3459
9.073425,-0.165
9.083289,-0.1551
9.093132,-0.0162
9.103888,0.1963
9.113957,0.219
9.12396,0.1324
9.13398,0.1208
9.144001,0.1473
9.154712,0.1505
9.164752,0.077
9.174693,-0.0278
9.18456,-0.1652
9.194393,-0.3841
9.204936,-0.6474
9.214793,-0.7636
9.224664,-0.8152
9.234508,-0.8086
9.244328,-0.73
9.254148,-0.5963
9.26468,-0.5048
9.2745,-0.3072
9.284353,-0.0713
9.294197,-0.018
9.304044,-0.1007
9.314644,0.0068
9.324676,0.0612
9.334696,0.116
9.344709,0.1854
9.355421,0.1658
9.366112,0.1775
9.376136,0.1435
9.386173,0.0415
9.396073,-0.1495
9.405917,-0.4673
9.416453,-0.6823
9.427845,-0.7099
9.437672,-0.6056
9.447508,-0.5258
9.457337,-0.4598
9.467852,-0.4078
9.477677,-0.3772
9.487545,-0.2897
9.497405,-0.1973
9.507268,-0.2056
9.517781,-0.2504
9.527636,-0.0732
9.537625,0.1608
9.547636,0.2554
9.557717,0.2461
9.568428,0.2064
9.578444,0.1342
9.588453,-0.0067
9.598328,-0.0924
9.60818,-0.1424
9.618733,-0.2588
9.628564,-0.739
9.638397,-1.0
9.648224,-1.0
9.658033,-1.0
9.668513,-1.0
9.67834,-1.0
9.688164,-0.9225
9.69802,-0.4855
9.707884,-0.2609
9.717717,-0.0763
9.728412,0.0347
9.738352,0.0054
9.74836,0.2171
9.75838,0.4067
9.768384,0.519
9.779781,0.523
9.789793,0.477
9.799797,0.493
9.809804,0.4101
9.819828,0.2158
9.830533,0.0338
9.84194,-0.4401
9.85178,-0.5793
9.861628,-0.7679
9.871468,-0.9201
9.88198,-1.0
9.891784,-1.0
9.901604,-0.9564
9.911429,-0.8304
9.921253,-0.6754
9.931797,-0.448
9.941629,-0.3059
9.951488,-0.0688
9.961528,0.2089
9.971545,0.3924
9.982293,0.4405
9.992321,0.409
10.002345,0.3333
10.012453,0.2602
10.022561,0.1474
10.033281,-0.0556
10.0432,-0.271
10.053105,-0.422
10.063013,-0.4858
10.072909,-0.5302
10.083497,-0.6888
10.0934,-0.7226
10.103284,-0.8586
10.113188,-0.7456
10.123105,-0.5654
10.133716,-0.3689
10.14364,-0.2464
10.153565,-0.2504
10.163469,-0.2094
10.173393,-0.0133
10.183505,0.308
10.194265,0.3917
10.205057,0.3447
10.216756,0.2101
10.226857,0.1133
10.236956,0.0775
10.249313,-0.0058
10.259252,-0.1356
10.269168,-0.4157
10.279101,-0.7502
10.289,-1.0
10.299556,-1.0
10.309432,-1.0
10.3193,-0.9955
10.329189,-0.7658
10.339097,-0.471
10.349708,-0.279
10.359621,-0.1602
10.369544,-0.0423
10.379481,-0.0961
10.389405,-0.0793
10.400156,0.1844
10.411832,0.4137
10.421988,0.3989
10.432105,0.3347
10.442209,0.2189
10.453001,0.1257
10.464709,0.2022
10.474804,0.165
10.484869,-0.0165
10.494776,-0.4252
10.5054,-0.7515
10.515313,-0.8566
10.525248,-0.7895
10.535161,-0.8234
10.545081,-0.9357
10.555681,-0.8236
10.567156,-0.6211
10.577084,-0.4313
10.587017,-0.1447
10.596937,-0.054
10.607537,-0.1247
10.617465,-0.2297
10.62756,0.2849
10.637648,0.458
10.647732,0.5192
10.659224,0.4999
10.670912,0.404
10.680993,0.3589
10.691088,0.2065
10.701112,-0.1459
10.711721,-0.4829
10.723204,-0.5683
10.73312,-0.6002
10.743028,-0.6741
10.752904,-0.6523
10.763504,-0.6937
10.773396,-0.6524
10.783316,-0.4725
10.793252,-0.3056
10.803176,-0.2213
10.813809,-0.2053
10.823708,-0.2624
10.833613,-0.2467
10.843588,0.0348
10.853676,0.2748
10.864477,0.3057
10.876244,0.281
10.886337,0.1806
10.89646,0.0501
10.906504,-0.0053
10.9171,-0.065
10.928581,-0.2186
10.938496,-0.5891
10.9484,-0.8851
10.958296,-1.0
10.968845,-1.0
10.978729,-0.9391
10.988636,-0.8654
10.998537,-0.8689
11.008433,-0.7779
11.019032,-0.6041
11.028932,-0.4383
11.038845,-0.2656
11.048736,-0.3397
11.058649,-0.0903
11.06942,0.43
11.079504,0.5298
11.0903,0.4911
11.101981,0.465
11.112069,0.3547
11.122853,0.2254
11.134569,0.1474
11.144597,-0.0976
11.154513,-0.3495
11.164428,-0.6928
11.175057,-0.803
11.184948,-0.9044
11.194845,-0.9801
11.204736,-0.9938
11.214616,-0.942
11.225209,-0.8149
11.2351,-0.6513
11.245009,-0.3592
11.25492,-0.165
11.264832,-0.0672
11.275452,-0.1117
11.285485,0.1055
11.295569,0.3897
11.305668,0.4515
11.315813,0.4409
11.326588,0.3748
11.338296,0.2171
11.348408,0.0729
11.358392,-0.12
11.368309,-0.3147
11.378909,-0.4534
11.390369,-0.6592
11.400284,-0.9438
11.410181,-0.9416
11.420077,-0.8159
11.430672,-0.7728
11.440588,-0.6235
11.450485,-0.4606
11.460385,-0.3352
11.470304,-0.291
11.480876,-0.4044
11.490764,-0.3893
11.500657,-0.3027
11.510608,0.1047
11.520689,0.3207
11.531476,0.3855
11.542284,0.3674
11.553989,0.3272
11.564092,0.2481
11.5742,0.1152
11.584913,-0.07
11.596372,-0.3212
11.606301,-0.4175
11.616201,-0.6811
11.626112,-0.8656
11.636705,-0.8416
11.646613,-0.7154
11.656517,-0.6114
11.666408,-0.5628
11.676321,-0.3854
11.686941,-0.2844
11.696837,-0.309
11.706732,-0.2904
11.716621,-0.3969
11.726532,-0.1397
11.737293,0.2485
11.747408,0.3679
11.75754,0.3629
11.767637,0.2514
11.777745,0.1533
11.78854,0.131
11.80024,0.1335
11.810337,0.1215
11.820372,-0.1688
11.830281,-0.4697
11.840888,-0.6531
11.852344,-0.8063
11.862244,-0.7925
11.872137,-0.6804
11.882024,-0.4737
11.892608,-0.4968
11.902521,-0.5021
11.912428,-0.3227
11.922345,-0.2137
11.932249,-0.3504
11.94284,-0.3437
11.952756,-0.0526
11.962868,0.2373
11.97298,0.3314
11.983077,0.3757
11.994565,0.2999
12.006229,-0.0818
12.017704,-0.2147
12.027612,-0.1991
12.037545,-0.2103
12.048152,-0.27
12.058053,-0.4045
12.067929,-0.5241
12.077824,-0.5326
12.087713,-0.4682
12.098293,-0.4363
12.108201,-0.3082
12.118104,-0.2652
12.128008,-0.2073
12.137925,-0.1333
12.148549,-0.0798
12.158465,-0.0664
12.168389,-0.0887
12.178313,-0.0664
12.188237,-0.0406
12.198848,-0.1101
12.208765,-0.0356
12.218885,0.151
12.228973,0.2167
12.239116,0.1588
12.249864,-0.0288
12.261341,-0.292
12.271285,-0.3741
12.281236,-0.3294
12.291172,-0.3134
12.301804,-0.3993
12.311713,-0.461
12.321644,-0.4549
12.331568,-0.4027
12.341485,-0.3391
12.352121,-0.313
12.362065,-0.2292
12.372004,-0.164
12.38194,-0.1424
12.391873,-0.1333
12.402517,-0.069
12.412549,0.047
12.42268,0.0578
12.432816,0.0248
12.444553,0.021
12.455232,-0.0248
12.465181,-0.0407
12.475112,-0.1277
12.485056,-0.3045
12.494956,-0.6541
12.505564,-0.7706
12.517017,-0.7168
12.526928,-0.581
12.536805,-0.4894
12.546692,-0.4094
12.557265,-0.4348
12.567185,-0.5015
12.577093,-0.5321
12.586993,-0.421
12.5969,-0.2827
12.607497,-0.2651
12.617408,-0.1432
12.627432,0.0803
12.63752,0.2755
12.647816,0.2772
12.6586,0.1806
12.668677,0.141
12.680373,0.2401
12.690444,0.2022
12.700512,0.0776
12.71116,-0.1086
12.721073,-0.4075
12.73098,-0.8187
12.740864,-1.0
12.750728,-0.9353
12.761317,-0.6711
12.771228,-0.5094
12.781132,-0.4171
12.791052,-0.3529
12.800949,-0.3869
12.811529,-0.3256
12.821449,-0.1411
12.831537,0.1995
12.841696,0.2602
12.851793,0.2453
12.862581,0.2286
12.874288,0.1894
12.884376,0.2338
12.894473,0.2053
12.904568,0.0853
12.916772,-0.2038
12.926685,-0.3506
12.936596,-0.5217
12.946516,-0.5738
12.956437,-0.5906
12.967053,-0.5494
12.976937,-0.6198
12.986817,-0.5775
12.996708,-0.4679
13.006596,-0.3527
13.017185,-0.251
13.027089,-0.2935
13.036993,-0.2206
13.04702,0.0792
13.057088,0.2146
13.068044,0.183
13.07972,0.132
13.089784,0.1178
13.099892,0.0437
13.10994,-0.0082
13.120549,-0.131
13.132028,-0.2893
13.141924,-0.4136
13.151852,-0.5894
13.161788,-0.6465
13.171709,-0.8245
13.181612,-0.9685
13.19152,-0.8324
13.20142,-0.6126
13.211313,-0.5279
13.221253,-0.5642
13.231181,-0.3576
13.241108,-0.2013
13.251036,-0.0203
13.261116,0.2114
13.271245,0.3338
13.281389,0.3478
13.291473,0.3388
13.301581,0.3273
13.31168,0.292
13.321797,0.2353
13.3319,0.1802
13.341957,-0.0099
13.351877,-0.2811
13.361804,-0.5203
13.371736,-0.563
13.381665,-0.6633
13.391609,-0.7522
13.401516,-0.9139
13.411429,-0.9888
13.42136,-0.7807
13.429717,-0.5517
13.439661,-0.2658
13.449604,-0.1601
13.459521,-0.2455
13.469436,-0.3788
13.479396,-0.0757
13.489521,0.2343
13.499621,0.3809
13.509713,0.4343
13.519989,0.4047
13.530084,0.3016
13.540177,0.1498
13.55022,-0.1123
13.560145,-0.2593
13.570056,-0.2483
13.580008,-0.2373
13.58992,-0.4756
13.599832,-0.7961
13.609737,-0.824
13.619621,-0.7835
13.628017,-0.7411
13.637936,-0.6123
13.647845,-0.5262
13.657765,-0.4243
13.667693,-0.1108
13.677764,0.1515
13.687929,0.113
13.697896,-0.0671
13.707933,0.1081
13.71808,0.193
13.728213,0.1359
13.738316,0.1877
13.748416,0.2966
13.758528,0.2779
13.768645,0.1327
13.778709,-0.068
13.788637,-0.3096
13.798541,-0.4011
13.808441,-0.4893
13.818336,-0.6258
13.828276,-0.6528
13.838189,-0.4626
13.848076,-0.3894
13.85642,-0.3226
13.866325,-0.2199
13.876229,-0.2439
13.886173,-0.3145
13.896097,-0.363
13.906012,-0.3369
13.915932,-0.0444
13.926045,0.1901
13.936828,0.2336
13.946905,0.209
13.95696,0.1719
13.967048,0.1806
13.977116,0.1514
13.987249,0.1201
13.997308,-0.0398
14.007212,-0.4016
14.017105,-0.6451
14.027021,-0.6571
14.036952,-0.5231
14.04688,-0.4198
14.056804,-0.3654
14.066673,-0.4411
14.076568,-0.4654
14.086501,-0.35
14.094841,-0.2395
14.104792,-0.1717
14.114696,-0.3419
14.124629,-0.0481
14.134757,0.284
14.144888,0.2901
14.15498,0.3012
14.165068,0.2968
14.175165,0.2382
14.185293,0.0914
14.195328,-0.0807
14.205252,-0.2501
14.215165,-0.2999
14.225089,-0.395
14.235013,-0.4505
14.244929,-0.5746
14.254864,-0.7316
14.264777,-0.8186
14.274677,-0.696
14.28302,-0.5353
14.292952,-0.3479
14.302896,-0.1965
14.312816,-0.2465
14.322716,-0.3515
14.33264,-0.4587
14.342597,-0.4131
14.352557,-0.033
14.362656,0.2925
14.373464,0.3091
14.383548,0.2614
14.393672,0.2061
14.403773,0.1231
14.413872,0.0466
14.423969,0.1251
14.434117,0.0686
14.444116,-0.2079
14.454036,-0.4775
14.46394,-0.726
14.473849,-0.925
14.483753,-0.8724
14.49368,-0.6875
14.503601,-0.5972
14.513521,-0.4646
14.523452,-0.3254
14.533372,-0.3114
14.543356,-0.2649
14.55328,-0.1493
14.561653,-0.078
14.571628,0.0272
14.581712,0.2021
14.59184,0.2916
14.601992,0.2043
14.612089,0.0361
14.622069,-0.0144
14.632148,0.0233
14.642292,0.052
14.652388,0.0147
14.662377,-0.0477
14.672301,-0.3029
14.682212,-0.6752
14.692189,-0.9638
14.702133,-0.9858
14.71204,-0.9264
14.721924,-0.886
14.731828,-0.8932
14.741772,-0.7312
14.751708,-0.6081
14.761636,-0.4237
14.771564,-0.1916
14.779929,-0.123
14.78986,-0.1605
14.799952,0.2697
14.810041,0.4781
14.820849,0.488
14.830897,0.4097
14.840952,0.4302
14.851053,0.3651
14.861168,0.1749
14.87128,0.0352
14.881204,-0.1688
14.89112,-0.3625
14.901061,-0.6357
14.910968,-0.7335
14.920892,-0.8602
14.930785,-0.8713
14.940692,-0.9286
14.950633,-0.8684
14.960533,-0.5921
14.970453,-0.3454
14.980373,-0.2097
14.990284,-0.2029
15.000225,-0.2246
15.010149,-0.2586
15.02006,-0.2565
15.028465,0.0646
15.038553,0.2816
15.048637,0.357
15.058796,0.3887
15.068897,0.3156
15.079016,0.1764
15.08912,0.0848
15.099221,0.023
15.109272,-0.0559
15.119193,-0.3214
15.129129,-0.8153
15.139081,-0.9842
15.148981,-1.0
15.158892,-1.0
15.168792,-1.0
15.178676,-0.982
15.188592,-0.9312
15.198525,-0.865
15.208464,-0.6765
15.219944,-0.2298
15.229865,-0.1945
15.239785,-0.4348
15.249696,-0.7496
15.25964,-0.3707
15.269701,0.3168
15.280505,0.442
15.290564,0.412
15.300672,0.4777
15.31078,0.5427
15.320877,0.5301
15.330981,0.4025
15.341076,0.319
15.351133,-0.058
15.361072,-0.3809
15.370985,-0.5325
15.380916,-0.5672
15.390825,-0.5457
15.40072,-0.5899
15.410636,-0.5491
15.420536,-0.5894
15.430424,-0.4943
15.44034,-0.2632
15.450257,-0.1088
15.460201,-0.0622
15.470125,-0.0805
15.480089,0.0287
15.490164,0.1479
15.500281,0.1646
15.510409,0.183
15.520488,0.1831
15.530589,0.0919
15.54062,-0.0827
15.550533,-0.2702
15.560484,-0.4682
15.570388,-0.4371
15.580296,-0.3569
15.590196,-0.3336
15.600125,-0.296
15.610053,-0.4197
15.619964,-0.5247
15.628316,-0.4725
15.638229,-0.373
15.648148,-0.3818
15.658084,-0.2822
15.667981,-0.2337
15.677908,-0.2879
15.687832,-0.0022
15.697929,0.2616
15.708741,0.2867
15.718832,0.2167
15.728933,0.1478
15.739036,0.0491
15.749009,-0.108
15.758936,-0.076
15.768864,-0.1194
15.778784,-0.3495
15.788717,-0.8829
15.798641,-1.0
15.808572,-1.0
15.818469,-1.0
15.828365,-1.0
15.83824,-0.9039
15.846576,-0.6926
15.856496,-0.4975
15.866436,-0.4015
15.876344,-0.3804
15.886244,-0.5026
15.896148,-0.6651
15.906072,-0.515
15.914501,0.0407
15.924596,0.4293
15.934684,0.5013
15.944808,0.4968
15.954893,0.4858
15.965032,0.4503
15.975149,0.2746
15.985277,0.1776
15.995372,-0.078
16.005292,-0.3485
16.015203,-0.4822
16.025123,-0.6231
16.035032,-0.8594
16.044919,-0.9905
16.054824,-0.8858
16.064756,-0.7799
16.074647,-0.7219
16.084571,-0.5364
16.094484,-0.4141
16.104391,-0.3113
16.114351,-0.2924
16.122728,-0.3414
16.132667,-0.2342
16.142751,0.2164
16.152856,0.333
16.163688,0.3193
16.173807,0.2598
16.1839,0.2989
16.193964,0.3564
16.204063,0.3017
16.214172,0.1399
16.224143,-0.2853
16.234064,-0.5795
16.243995,-0.5425
16.253908,-0.4762
16.263811,-0.5446
16.273759,-0.5672
16.283664,-0.5191
16.293563,-0.5297
16.303468,-0.4276
16.31336,-0.2568
16.323295,-0.2005
16.333208,-0.2096
16.343103,-0.2986
16.353008,-0.1915
16.363023,0.1525
16.373155,0.3086
16.383308,0.2964
16.393407,0.1608
16.403448,-0.0272
16.413383,-0.0146
16.42354,0.0875
16.4337,0.0562
16.44362,-0.2711
16.453527,-0.5486
16.463455,-0.6363
16.473451,-0.6324
16.483379,-0.5509
16.493288,-0.6129
16.501663,-0.6103
16.511583,-0.6485
16.521539,-0.5639
16.531463,-0.3339
16.541372,-0.3708
16.551288,-0.3776
16.561195,-0.3572
16.571111,-0.4283
16.579523,-0.1192
16.589656,0.2867
16.600452,0.3589
16.610548,0.2931
16.620635,0.2079
16.63076,0.1694
16.640855,0.2163
16.650939,0.2618
16.661031,0.1324
16.671012,-0.2239
16.68098,-0.526
16.690868,-0.7154
16.700767,-0.668
16.710651,-0.6096
16.720563,-0.4406
16.730499,-0.3251
16.740436,-0.3048
16.750339,-0.3014
16.760248,-0.2531
16.770172,-0.1902
16.780115,-0.2393
16.790023,-0.2481
16.799932,-0.0868
16.809995,0.1417
16.820127,0.1968
16.830244,0.0761
16.840307,-0.0114
16.850212,-0.0586
16.860179,0.0277
16.870256,0.0464
16.880247,-0.0515
16.890184,-0.1076
16.900079,-0.3483
16.90998,-0.8505
16.918308,-0.9844
16.928199,-0.9153
16.938112,-0.6558
16.947996,-0.4498
16.957887,-0.3707
16.967779,-0.3267
16.977676,-0.4243
16.986055,-0.4608
16.995964,-0.3906
17.005887,-0.2163
17.015848,0.0169
17.025939,0.1816
17.03606,0.2624
17.046852,0.1708
17.056943,0.0726
17.066995,0.2511
17.077068,0.3786
17.087228,0.2835
17.09732,0.1558
17.107379,-0.049
17.117296,-0.3991
17.127208,-0.4024
17.137144,-0.5456
17.147071,-0.8691
17.156963,-1.0
17.16686,-0.7345
17.17678,-0.2884
17.186735,-0.0929
17.19668,-0.2081
17.206596,-0.3498
17.216495,-0.5936
17.2264,-1.0
17.236307,-1.0
17.246208,-0.2646
17.254732,0.3947
17.264816,0.6412
17.274959,0.6634
17.285055,0.5264
17.2952,0.16
17.305299,0.2078
17.315391,0.1872
17.325408,-0.2311
17.335336,-0.8247
17.345308,-0.8284
17.355228,-0.6604
17.365119,-0.7518
17.375015,-0.8485
17.384908,-1.0
17.394819,-0.9778
17.40472,-0.3447
17.414707,0.0896
17.424991,0.0624
17.434968,-0.0582
17.444896,-0.2521
17.454792,-0.455
17.464696,-0.5348
17.474628,-0.0306
17.483127,0.2198
17.493263,0.4008
17.503347,0.5409
17.513408,0.625
17.523544,0.6052
17.533651,0.4619
17.543764,-0.0129
17.553688,-0.3093
17.563608,-0.3084
17.573524,-0.3365
17.583459,-0.4586
17.593399,-0.5288
17.603319,-0.5292
17.613227,-0.444
17.623151,-0.3446
17.633079,-0.2545
17.643007,-0.2156
17.652959,-0.2818
17.662879,-0.2598
17.671247,-0.2586
17.681179,-0.2249
17.691112,-0.1846
17.701095,-0.0492
17.711132,0.0027
17.721052,-0.0215
17.731111,0.0693
17.741411,0.1019
17.751539,0.0824
17.761684,0.0911
17.771707,-0.0656
17.781631,-0.2461
17.791536,-0.2792
17.801479,-0.2996
17.811372,-0.356
17.821275,-0.4068
17.831176,-0.5133
17.841091,-0.5752
17.849479,-0.5687
17.85938,-0.4991
17.869283,-0.3495
17.879211,-0.2718
17.889112,-0.2784
17.899023,-0.2218
17.908952,-0.3372
17.918848,-0.4394
17.927207,-0.2855
17.937219,0.0869
17.947303,0.2705
17.957479,0.2802
17.96758,0.129
17.977535,-0.1044
17.987483,-0.1535
17.997415,-0.2067
18.007371,-0.4517
18.017311,-0.6363
18.027227,-0.763
18.037124,-0.9315
18.047035,-0.7891
18.056972,-0.709
18.066883,-0.6682
18.075244,-0.4919
18.085159,-0.2876
18.095083,-0.2136
18.105031,-0.1746
18.114952,-0.2087
18.124872,-0.2028
18.134891,0.0774
18.145175,0.0165
18.15522,0.0836
18.165307,0.3471
18.175428,0.3889
18.185512,0.2847
18.195611,0.2975
18.205724,0.478
18.215812,0.4418
18.225915,0.1718
18.235931,-0.1259
18.245859,-0.4651
18.2558,-0.4638
18.265716,-0.3342
18.275655,-0.2898
18.28556,-0.4603
18.295452,-0.615
18.305376,-0.6338
18.315275,-0.6405
18.323619,-0.5754
18.333539,-0.4257
18.343463,-0.2374
18.353399,-0.1707
18.363344,-0.1331
18.373292,-0.1201
18.383239,-0.0198
18.393375,0.0208
18.403484,0.0334
18.413608,0.0458
18.423711,0.0907
18.433799,0.1421
18.444055,-0.0333
18.453975,-0.1895
18.463935,-0.1637
18.473871,-0.0931
18.483795,-0.0751
18.493715,-0.2984
18.503648,-1.0
18.512016,-1.0
18.521903,-1.0
18.531791,-1.0
18.541675,-0.9122
18.55158,-0.3248
18.561511,-0.4489
18.571435,-0.8276
18.581335,-1.0
18.589683,-0.8371
18.599723,0.294
18.609836,0.6516
18.619976,0.6678
18.630088,0.5706
18.640184,0.3525
18.650196,-0.1225
18.660175,-0.0931
18.670248,0.125
18.680387,0.1468
18.690416,-0.0872
18.700332,-0.3578
18.710256,-0.6337
18.720188,-0.9635
18.730083,-0.9199
18.739976,-0.761
18.749876,-0.7831
18.759799,-0.604
18.769699,-0.5759
18.779611,-0.5548
18.787967,-0.5671
18.797895,-0.4425
18.807792,-0.339
18.817739,-0.0876
18.827796,0.2282
18.837907,0.4036
18.847995,0.467
18.858272,0.4042
18.868379,0.2621
18.878484,0.2562
18.88858,0.1115
18.898635,-0.0331
18.908548,-0.2994
18.918476,-0.6148
18.928396,-0.7483
18.938299,-0.5651
18.948204,-0.5289
18.958087,-0.7622
18.967992,-0.8996
18.977884,-0.9301
18.986219,-0.8322
18.996112,-0.65
19.006004,-0.3869
19.015911,-0.3418
19.025815,-0.3693
19.035724,-0.2569
19.045644,-0.2398
19.054008,-0.1093
19.064067,0.2943
19.074239,0.3802
19.084335,0.3192
19.09444,0.2961
19.104515,0.3053
19.114624,0.2972
19.124767,0.3018
19.134855,0.2527
19.144924,-0.007
19.154819,-0.378
19.16472,-0.5441
19.17468,-0.6388
19.184576,-0.6339
19.194499,-0.4707
19.204387,-0.4261
19.214284,-0.3919
19.224227,-0.2967
19.234144,-0.2563
19.24406,-0.2616
19.253959,-0.3482
19.262304,-0.4505
19.272239,-0.2983
19.282304,0.086
19.292371,0.1954
19.302663,0.152
19.31274,0.1505
19.322843,0.1944
19.332939,0.1903
19.343032,0.1512
19.353099,-0.0031
19.363012,-0.2996
19.372955,-0.4286
19.382879,-0.522
19.392812,-0.5333
19.40274,-0.5906
19.412639,-0.6317
19.422592,-0.5619
19.432512,-0.3996
19.442447,-0.2907
19.452388,-0.2327
19.46232,-0.2095
19.472232,-0.1803
19.48064,-0.244
19.490547,-0.2779
19.500524,0.0401
19.51058,0.2031
19.520711,0.2057
19.530839,0.2178
19.540952,0.1862
19.551052,0.2281
19.561151,0.1771
19.571268,0.0603
19.581356,-0.0166
19.591299,-0.2376
19.601211,-0.4862
19.611112,-0.6948
19.621047,-0.7239
19.630983,-0.7088
19.640863,-0.7251
19.65076,-0.6472
19.660655,-0.6372
19.67056,-0.5308
19.678899,-0.4572
19.688831,-0.4301
19.698736,-0.344
19.708667,-0.2532
19.718587,-0.0702
19.728595,0.0766
19.738744,0.169
19.748819,0.2835
19.75892,0.3573
19.769203,0.3281
19.779291,0.2467
19.789411,0.1162
19.799524,0.0035
19.809419,-0.1933
19.819339,-0.5576
19.829248,-0.9729
19.839199,-0.9182
19.849096,-0.7388
19.858991,-0.6614
19.868907,-0.4828
19.878784,-0.4328
19.887163,-0.3846
19.897079,-0.3183
19.906988,-0.3299
19.916904,-0.2559
19.926816,-0.2087
19.936767,-0.0769
19.946887,0.244
19.956979,0.3179
19.967128,0.2713
19.977235,0.2274
19.987356,0.2251
19.997463,0.2247
20.007568,0.2272
20.01766,0.2089
20.027744,0.0071
20.037664,-0.3391
20.047571,-0.5009
20.057476,-0.6587
20.067403,-0.6156
20.077323,-0.5066
20.087268,-0.4548
20.097171,-0.3811
20.10552,-0.3894
20.115415,-0.4177
20.125352,-0.2876
20.13528,-0.2086
20.145227,-0.2043
20.155155,-0.0933
20.165187,0.0401
20.175275,0.0878
20.18556,0.0584
20.195659,0.0148
20.205608,0.0037
20.215671,0.0813
20.225816,0.0952
20.235872,-0.0113
20.24584,-0.2017
20.255731,-0.4171
20.265672,-0.5424
20.275592,-0.6665
20.285503,-0.6254
20.295431,-0.6183
20.303804,-0.6615
20.313703,-0.6016
20.323627,-0.398
20.333543,-0.3092
20.343503,-0.3115
20.353424,-0.248
20.36334,-0.2401
20.373271,-0.0614
20.383396,0.2104
20.393564,0.2734
20.40368,0.0968
20.413759,0.1207
20.423835,0.217
20.433971,0.1843
20.444087,0.1791
20.454212,0.0496
20.464128,-0.2692
20.474039,-0.485
20.483928,-0.517
20.493848,-0.5013
20.503755,-0.459
20.512107,-0.4425
20.522016,-0.4453
20.531923,-0.3514
20.541852,-0.0711
20.551963,0.0978
20.562044,0.1545
20.572324,0.1206
20.582395,0.3508
20.592483,0.5034
20.602592,0.5669
20.612667,0.5657
20.622768,0.5071
20.632883,0.3747
20.642995,0.0301
20.652923,-0.3229
20.662843,-0.5201
20.672779,-0.8489
20.682699,-1.0
20.692739,-0.8671
20.702859,-0.6377
20.712968,-0.4871
20.723083,-0.3884
20.733188,-0.3236
20.743339,-0.2811
20.753515,-0.2532
20.763643,-0.2349
20.773788,-0.2229
20.783903,-0.215
20.794004,-0.2099
20.804187,0.2182
20.814304,0.1219
20.824436,0.0254
20.834476,-0.055
20.844392,-0.2978
20.854347,-0.5737
20.864295,-0.6428
20.874227,-0.5772
20.884159,-0.6577
20.894067,-0.5986
20.904003,-0.4899
20.913911,-0.3759
20.923871,-0.2542
20.933828,-0.1684
20.943775,-0.1173
20.953763,-0.1192
20.96372,-0.112
20.973663,-0.1092
20.983604,-0.0599
20.993679,0.0632
21.003835,0.0472
21.013931,0.1596
21.02404,0.2509
21.034172,0.2154
21.044319,0.1251
21.054403,-0.119
21.064327,-0.3722
21.074268,-0.5676
21.084199,-0.3834
21.094156,-0.276
21.104251,-0.2498
21.114336,-0.2327
21.124431,-0.2215
21.13454,-0.2141
21.144596,-0.2092
21.154663,-0.2061
21.16472,-0.204
21.174751,-0.2026
21.184787,-0.2017
21.19482,-0.2011
21.204872,-0.2007
21.214899,-0.2005
21.224939,-0.2003
21.234972,-0.2002
21.245019,-0.2001
21.255096,-0.2001
21.265127,-0.2001
21.275175,-0.2
21.285232,-0.2
21.29528,-0.2
21.30536,-0.2
21.315423,-0.2
21.325515,-0.2
21.335599,-0.2
21.345672,-0.2
21.355783,-0.2
21.365875,-0.2
21.375955,-0.2
21.386056,-0.2
21.396152,-0.2
21.406288,-0.2
21.416303,-0.3161
21.426244,-0.327
21.436151,-0.3626
21.446063,-0.3753
21.455991,-0.3676
21.465887,-0.3414
21.475803,-0.2782
21.485727,-0.2096
21.495664,-0.1612
21.505659,-0.1087
21.515628,-0.0935
21.525579,-0.1073
21.535535,-0.0911
21.545467,-0.0667
21.555431,-0.0412
21.565347,-0.0678
21.573724,-0.1208
21.583667,-0.1839
21.593595,-0.2394
21.60354,-0.3884
21.613452,-0.3672
21.623388,-0.3311
21.633348,-0.3307
21.643268,-0.3713
21.653203,-0.4077
21.663152,-0.3908
21.671524,-0.3366
21.681484,-0.2292
21.691427,-0.1816
21.7014,-0.1742
21.711376,-0.1754
21.721351,-0.184
21.731307,-0.1974
21.741231,-0.2776
21.751148,-0.8901
21.761064,-1.0
21.769392,-0.9874
21.7793,-0.4257
21.789268,0.0743
21.7994,0.1757
21.80944,-0.0539
21.819343,-0.4224
21.829271,-0.9369
21.839212,-1.0
21.849111,-1.0
21.859003,-0.9346
21.868932,-0.857
21.877292,-0.72
21.887203,-0.3009
21.897172,0.0136
21.907287,0.0549
21.917331,-0.0843
21.927244,-0.3325
21.937175,-0.819
21.947076,-1.0
21.956968,-1.0
21.966892,-0.3799
21.976795,-0.0477
21.985143,-0.1034
21.995164,0.3206
22.005243,0.5952
22.015384,0.5952
22.025463,0.5328
22.03556,0.2079
22.045495,-0.4824
22.055372,-0.6926
22.06528,-0.6116
22.075172,-0.4706
22.085063,-0.3625
22.094947,-0.2807
22.104831,-0.364
22.113168,-0.365
22.123115,-0.2636
22.133047,-0.2557
22.142955,-0.253
22.152864,-0.2613
22.162776,-0.2013
22.172832,0.1069
22.182943,0.2238
22.193019,0.2751
22.2038,0.2442
22.213855,0.0947
22.22384,-0.1532
22.233768,-0.2335
22.243679,-0.4085
22.253547,-0.6197
22.263448,-0.6736
22.273355,-0.6271
22.283248,-0.4982
22.293148,-0.2909
22.303071,-0.1455
22.311416,-0.1353
22.32138,-0.0583
22.331296,-0.1442
22.341192,-0.3522
22.3511,-0.4408
22.361076,0.1987
22.371187,0.4016
22.381267,0.5287
22.391403,0.4531
22.4015,0.3532
22.411571,0.3018
22.421703,0.0728
22.431652,-0.2561
22.441568,-0.3719
22.451503,-0.8715
22.461383,-0.967
22.471311,-0.763
22.481227,-0.5948
22.489576,-0.5487
22.499467,-0.4603
22.509359,-0.3267
22.519271,-0.1883
22.529199,-0.0161
22.539295,0.0996
22.549571,0.052
22.55964,0.0684
22.569759,0.0908
22.579887,0.1282
22.589975,0.2362
22.600063,0.2625
22.610132,0.1833
22.620204,-0.0396
22.630128,-0.1695
22.640043,-0.4956
22.649936,-0.6597
22.659835,-0.637
22.669719,-0.6768
22.679639,-0.6646
22.689516,-0.6158
22.697856,-0.5647
22.707731,-0.4815
22.717628,-0.1821
22.727668,0.0449
22.737768,0.0433
22.747852,0.0799
22.757928,-0.0019
22.767883,0.0044
22.777988,0.0921
22.78804,0.1704
22.798095,0.1903
22.808168,0.2311
22.818307,0.0308
22.82822,-0.2005
22.838127,-0.149
22.848047,-0.2087
22.857923,-0.353
22.86782,-0.6982
22.877712,-0.9437
22.886083,-0.9638
22.895975,-0.7121
22.905887,-0.3891
22.915771,-0.1436
22.925691,-0.1254
22.935628,-0.2415
22.945543,-0.3742
22.953935,0.0471
22.964027,0.5235
22.974103,0.6313
22.984388,0.648
22.994455,0.5681
23.004535,0.4939
23.014627,0.1127
23.024587,0.0107
23.034675,0.1708
23.044759,-0.043
23.054651,-0.6332
23.064556,-1.0
23.074451,-1.0
23.084356,-1.0
23.094224,-1.0
23.104091,-1.0
23.113979,-0.9254
23.123895,-0.3293
23.133815,-0.2202
23.142192,-0.1299
23.15212,-0.2562
23.162092,0.0841
23.172172,0.4532
23.182247,0.5433
23.192399,0.5492
23.202503,0.5557
23.212591,0.3041
23.222667,-0.0917
23.23258,-0.1574
23.242532,-0.12
23.252464,-0.0701
23.262519,0.0619
23.272575,-0.0587
23.282468,-0.685
23.292367,-1.0
23.302228,-1.0
23.312112,-1.0
23.321992,-1.0
23.330316,-0.9708
23.340236,-0.7831
23.35012,-1.0
23.360004,-0.5737
23.369991,0.1822
23.380067,0.2643
23.390136,0.3606
23.400419,0.3541
23.410516,0.3447
23.420608,0.2888
23.430679,0.2308
23.440755,0.2644
23.450872,0.2648
23.460952,0.2526
23.47104,0.1309
23.481103,0.0647
23.491092,-0.1555
23.50102,-0.4364
23.510919,-0.7217
23.520816,-0.9277
23.530708,-1.0
23.540563,-0.9224
23.550476,-0.7532
23.560375,-0.5719
23.568723,-0.6834
23.578615,-0.5128
23.588535,-0.0156
23.598707,0.0874
23.608791,0.0919
23.618896,0.1063
23.62898,0.1023
23.639076,0.1826
23.649204,0.1276
23.659303,0.1664
23.669399,0.187
23.679492,0.1532
23.689607,0.1432
23.699636,-0.0763
23.709556,-0.1044
23.719579,0.0545
23.7296,-0.0985
23.739507,-0.5111
23.749431,-1.0
23.759315,-1.0
23.769195,-1.0
23.779067,-1.0
23.788955,-0.8731
23.798891,-0.5538
23.808792,-0.4984
23.817148,-0.5893
23.827068,-0.1855
23.837144,0.0621
23.847223,0.1148
23.857332,0.2574
23.867439,0.3916
23.877759,0.3874
23.887851,0.3737
23.897956,0.282
23.908084,0.2606
23.918172,0.2836
23.928272,0.2063
23.938371,0.0443
23.948467,0.0479
23.9584,-0.3572
23.968307,-1.0
23.978176,-1.0
23.988059,-1.0
23.997936,-0.6417
24.007879,-0.6983
24.017772,-0.8611
24.027679,-0.5592
24.037643,0.0422
24.0477,-0.0915
24.057723,0.1405
24.067855,0.1944
24.077959,0.2269
24.08806,0.4175
24.098127,0.4074
24.108236,0.3413
24.118343,0.2557
24.128463,0.1853
24.138488,-0.262
24.148408,-0.3638
24.158355,-0.2413
24.16838,0.1403
24.17864,0.3017
24.188652,-0.3073
24.198543,-0.7983
24.208463,-0.9253
24.218351,-1.0
24.228231,-0.8877
24.23814,-0.4297
24.248056,-0.2326
24.256452,-0.073
24.266519,0.0929
24.276676,0.0239
24.286596,-0.173
24.296499,-0.2521
24.306451,-0.0074
24.316576,0.0738
24.326684,0.2374
24.336828,0.3061
24.346939,0.1629
24.357004,-0.1212
24.366943,-0.2109
24.376871,-0.1502
24.386827,-0.0268
24.39686,0.0066
24.406784,-0.1979
24.416696,-0.7801
24.426584,-1.0
24.436464,-1.0
24.446348,-0.9292
24.4563,-0.4868
24.464639,-0.4653
24.47454,-0.5286
24.484447,-0.6272
24.494348,-0.8252
24.504268,-0.5838
24.514211,-0.2449
24.524196,0.1236
24.534292,0.522
24.544555,0.5919
24.554643,0.5787
24.564756,0.5555
24.57484,0.4134
24.584932,0.1935
24.5949,-0.4284
24.604784,-0.5013
24.614711,-0.3634
24.624635,-0.2799
24.634563,-0.2966
24.642908,-0.3594
24.652776,-0.578
24.662696,-0.6606
24.672595,-0.5584
24.682487,-0.4016
24.692403,-0.2067
24.702308,-0.2126
24.71066,-0.2214
24.720575,-0.2038
24.730484,-0.2023
24.740404,-0.0877
24.750459,0.1387
24.760623,0.2222
24.770719,0.1663
24.780836,0.0482
24.790796,-0.0605
24.800716,-0.131
24.810655,-0.103
24.820568,-0.0252
24.830495,-0.0678
24.840415,-0.2319
24.850299,-0.8557
24.858648,-0.9179
24.868555,-1.0
24.87844,-0.8975
24.888339,-0.7067
24.898231,-0.3894
24.908143,-0.4687
24.918075,-0.4165
24.926439,-0.3874
24.936336,-0.5324
24.946247,-0.4137
24.95618,-0.1068
24.966312,0.3625
24.9764,0.4847
24.986656,0.4552
24.996744,0.3037
25.006835,0.1948
25.016908,-0.0155
25.026811,-0.0124
25.036867,0.0684
25.046951,-0.1563
25.056875,-0.9071
25.066791,-1.0
25.076675,-1.0
25.086547,-1.0
25.096416,-1.0
25.106279,-1.0
25.114604,-1.0
25.124536,-0.5601
25.134447,-0.0484
25.144607,0.1239
25.15472,0.0235
25.164619,-0.3345
25.174579,-0.3052
25.184652,0.3395
25.194763,0.5267
25.204847,0.5669
25.214975,0.5887
25.225116,0.4698
25.235252,0.2819
25.245279,-0.2469
25.255195,-0.3125
25.265119,-0.2457
25.275096,-0.0935
25.285032,-0.1572
25.29496,-0.2582
25.304859,-0.5132
25.314779,-0.8874
25.324703,-0.9176
25.333047,-1.0
25.342935,-1.0
25.352832,-0.9339
25.362764,-0.6968
25.372703,-0.0279
25.382808,0.2414
25.393087,0.1769
25.403192,0.2138
25.413303,0.287
25.423427,0.27
25.433532,0.1818
25.44366,0.0434
25.453676,-0.0266
25.463611,-0.1372
25.473588,-0.0527
25.483655,0.0499
25.493616,-0.2219
25.503515,-1.0
25.513391,-1.0
25.5233,-1.0
25.533184,-1.0
25.543092,-0.9919
25.551443,-0.9302
25.561347,-0.9386
25.571243,-0.9037
25.581184,-0.9154
25.591108,-0.9385
25.601003,-0.803
25.6109,-0.1167
25.621004,0.4674
25.631111,0.6252
25.641223,0.6855
25.651363,0.6785
25.661468,0.6227
25.671564,0.4735
25.68172,0.0241
25.691648,-0.3826
25.701583,-0.3822
25.7115,-0.231
25.721416,-0.1699
25.731388,-0.3653
25.741319,-0.6702
25.749671,-0.7906
25.759571,-0.7688
25.769479,-0.6572
25.779424,-0.2729
25.789339,-0.2283
25.799251,-0.3039
25.809156,-0.4209
25.819059,-0.2999
25.827407,-0.318
25.837339,-0.5158
25.847251,-0.5086
25.857156,-0.0553
25.867244,0.2527
25.877344,0.3163
25.887668,0.2108
25.897716,-0.0052
25.907636,-0.1294
25.917572,-0.0791
25.927576,0.0136
25.937728,0.0103
25.947631,-0.2472
25.95754,-0.8151
25.967435,-0.8333
25.97734,-0.8235
25.98726,-0.7218
25.995635,-0.1143
26.005752,0.2211
26.015888,0.1675
26.025899,-0.1538
26.035848,-0.1979
26.045768,-0.2973
26.055664,-0.3664
26.065584,-0.0496
26.075672,0.2175
26.085811,0.2534
26.095907,0.3882
26.106035,0.3344
26.116128,0.1279
26.126115,-0.2458
26.136075,-0.2742
26.146028,-0.017
26.156116,0.152
26.166408,0.0442
26.176303,-0.2177
26.186235,-0.3848
26.196168,-0.5394
26.206064,-0.7225
26.215959,-0.7265
26.225864,-0.6309
26.235752,-0.5312
26.245712,-0.2813
26.2541,-0.0277
26.264196,0.0248
26.274175,-0.12
26.284067,-0.469
26.293987,-0.2282
26.304071,0.2502
26.314151,0.469
26.324296,0.4444
26.334396,0.3039
26.344512,0.3864
26.354612,0.3016
26.364696,-0.0973
26.37462,-0.2131
26.38454,-0.2026
26.394472,-0.383
26.404392,-0.5601
26.414316,-0.5983
26.424236,-0.6782
26.434131,-0.6702
26.444063,-0.5851
26.453971,-0.367
26.462352,-0.2064
26.472295,-0.069
26.482336,-0.0081
26.492256,-0.1412
26.502212,-0.2605
26.512168,-0.0582
26.522104,-0.0466
26.532171,0.1199
26.542467,0.0715
26.552604,0.0228
26.562675,0.2283
26.572755,0.2887
26.582904,0.2975
26.592992,0.3152
26.603092,-0.193
26.613,-0.5477
26.6229,-0.634
26.632795,-0.6239
26.642711,-0.5346
26.652667,-0.5035
26.662588,-0.5009
26.672491,-0.4238
26.68242,-0.1159
26.690856,0.0154
26.700839,-0.2111
26.710731,-0.8093
26.720636,-0.6319
26.730676,0.1475
26.740776,0.3651
26.750888,0.4627
26.761028,0.3934
26.771139,0.1869
26.781215,-0.0216
26.791143,-0.4064
26.801084,-0.4403
26.810991,-0.2007
26.820911,-0.2296
26.830795,-0.4554
26.840703,-0.5313
26.850643,-0.5684
26.860536,-0.5498
26.8689,-0.4969
26.878795,-0.3944
26.888696,-0.4908
26.898611,-0.3858
26.908559,-0.325
26.918464,-0.2958
26.9284,-0.1406
26.936756,-0.0586
26.946828,0.1422
26.957132,0.1694
26.967243,0.1621
26.977367,0.1194
26.987455,0.1206
26.997564,0.0518
27.007608,-0.1291
27.017515,-0.2665
27.027515,0.194
27.037631,0.3154
27.047731,0.1397
27.057735,-0.2502
27.067651,-0.6621
27.077556,-0.7548
27.087467,-0.5462
27.097415,-0.2878
27.107383,-0.165
27.117324,-0.1858
27.127248,-0.254
27.137203,-0.1114
27.147144,-0.1381
27.157215,0.0677
27.167388,0.1377
27.177507,0.054
27.187604,0.2416
27.197751,0.1923
27.207788,-0.1949
27.217727,-0.2638
27.227687,-0.1016
27.237632,-0.082
27.247552,-0.1979
27.257492,-1.0
27.267423,-1.0
27.277315,-1.0
27.287212,-1.0
27.295551,-1.0
27.30544,-1.0
27.315328,-1.0
27.325231,-0.8168
27.335172,-0.3605
27.345083,-0.6468
27.355047,0.0092
27.363515,0.4997
27.373647,0.7226
27.383935,0.7481
27.39402,0.6992
27.404115,0.5677
27.41422,0.4732
27.424327,0.539
27.434415,0.5788
27.444524,0.6556
27.454624,0.362
27.46458,-0.3218
27.474527,-0.3504
27.484443,-0.527
27.494367,-0.5846
27.504295,-0.4824
27.514211,-0.4706
27.524131,-0.472
27.534051,-0.2456
27.543975,-0.3095
27.553888,-0.4223
27.563787,-0.3253
27.573747,-0.0002
27.583852,0.1795
27.593999,0.1269
27.604087,0.0623
27.614183,0.0698
27.624355,0.1135
27.634391,-0.0602
27.644351,-0.1668
27.654291,-0.1207
27.664228,-0.1269
27.674179,-0.4121
27.684112,-1.0
27.694011,-1.0
27.703895,-1.0
27.712219,-1.0
27.722135,-1.0
27.732032,-1.0
27.741924,-1.0
27.751823,-0.4608
27.762035,0.0728
27.772144,0.1252
27.782243,0.4292
27.792343,0.573
27.802436,0.6038
27.812564,0.5578
27.822683,0.4471
27.832796,0.1187
27.842832,-0.1135
27.852767,-0.1743
27.862716,-0.0145
27.872667,-0.0701
27.882604,-0.3852
27.892515,-1.0
27.902416,-1.0
27.912292,-1.0
27.922168,-1.0
27.930528,-1.0
27.940408,-1.0
27.950315,-0.3139
27.96038,0.2176
27.970468,0.3846
27.980636,0.3256
27.990671,-0.2209
28.000591,-0.1668
28.01066,0.1418
28.020727,0.246
28.030832,0.2781
28.041128,0.2902
28.051216,0.1755
28.061315,0.1531
28.071428,0.0627
28.08156,0.0265
28.091655,0.0327
28.101556,-0.3232
28.111484,-0.8904
28.1214,-1.0
28.131311,-1.0
28.141216,-1.0
28.151111,-0.8947
28.161052,-0.5756
28.170951,-0.6915
28.180887,-0.6093
28.190784,-0.687
28.200696,-0.637
28.209039,-0.5437
28.218996,0.086
28.229095,0.4851
28.23916,0.5553
28.249292,0.5126
28.259403,0.44
28.269479,0.325
28.279607,0.0738
28.289524,-0.2164
28.299463,-0.2016
28.309396,-0.082
28.319299,-0.2393
28.32924,-0.4432
28.33916,-0.7812
28.349075,-1.0
28.358972,-1.0
28.368848,-1.0
28.377172,-1.0
28.387104,-0.869
28.397027,-0.438
28.406932,-0.3458
28.416843,-0.3781
28.42678,-0.3081
28.43678,0.1038
28.446868,0.4495
28.456951,0.5308
28.467239,0.4851
28.477323,0.4117
28.487443,0.3227
28.497547,0.2399
28.507656,0.1833
28.517759,0.1203
28.527896,0.0369
28.537815,-0.2024
28.54774,-0.4088
28.557651,-0.7008
28.567564,-0.8231
28.577484,-0.8027
28.587415,-0.7864
28.597343,-0.8332
28.607236,-1.0
28.615568,-0.9557
28.625484,-0.7027
28.635412,-0.5566
28.645343,-0.3328
28.655387,0.1267
28.665512,0.3899
28.6756,0.4425
28.685764,0.3822
28.695863,0.3926
28.705959,0.4427
28.716056,0.3539
28.726116,-0.0493
28.736068,-0.2514
28.745983,-0.1861
28.755907,-0.2488
28.765823,-0.3714
28.775768,-0.4819
28.785699,-0.6154
28.795612,-0.6486
28.805515,-0.5559
28.813867,-0.426
28.823776,-0.2678
28.833692,-0.1869
28.843639,-0.2647
28.853588,-0.2319
28.863519,-0.1988
28.873432,-0.1097
28.883472,0.0916
28.893787,0.1484
28.903888,0.1098
28.913967,0.1078
28.924024,-0.0061
28.933935,-0.1576
28.943891,-0.2859
28.953819,-0.2129
28.963743,-0.1378
28.97368,-0.3948
28.982023,-0.5197
28.991968,-0.5131
29.001895,-0.8032
29.011779,-0.8322
29.021688,-0.5448
29.03162,-0.3083
29.041564,-0.2402
29.051492,-0.2098
29.059827,-0.3413
29.069728,-0.4062
29.079704,0.1079
29.089771,0.3351
29.099956,0.3127
29.110067,0.2651
29.120172,0.2306
29.130271,0.1695
29.140392,0.0747
29.150451,-0.0506
29.160388,-0.1355
29.170335,-0.08
29.18024,-0.3656
29.190132,-0.9352
29.20008,-1.0
29.211479,-1.0
29.221368,-1.0
29.231267,-1.0
29.241159,-1.0
29.251083,-1.0
29.260971,-1.0
29.270875,-0.5426
29.280796,-0.3268
29.290708,-0.3453
29.300651,-0.1092
29.310768,0.4935
29.320852,0.68
29.331636,0.7162
29.34172,0.6648
29.351835,0.5048
29.361948,0.2948
29.372068,0.1367
29.38204,-0.2068
29.391956,-0.1838
29.401903,-0.1919
29.411815,-0.4416
29.421756,-0.6111
29.431688,-0.7332
29.441604,-0.9922
29.451507,-1.0
29.461395,-0.7718
29.471319,-0.565
29.481235,-0.3374
29.491176,-0.0355
29.501344,0.013
29.511444,0.0828
29.521587,0.1613
29.531703,0.075
29.541788,0.1574
29.551923,0.2954
29.562011,0.3557
29.57216,0.2582
29.582267,0.1289
29.59238,0.131
29.602512,0.092
29.612415,-0.3843
29.622352,-0.6906
29.632272,-0.8901
29.642192,-0.8967
29.65212,-0.844
29.662008,-0.7951
29.671899,-0.7138
29.681835,-0.4659
29.691747,-0.1431
29.701864,0.1332
29.711967,0.2215
29.722288,0.1937
29.732376,0.2004
29.742452,0.197
29.752567,0.1623
29.762672,0.0895
29.772684,-0.0533
29.782623,-0.1416
29.792579,-0.1931
29.802536,-0.0876
29.81258,0.1431
29.822696,-0.0293
29.832599,-0.7372
29.842523,-1.0
29.852443,-1.0
29.862335,-1.0
29.872211,-1.0
29.880567,-0.924
29.890464,-0.2882
29.900415,-0.2243
29.910335,-0.2433
29.920251,-0.0278
29.93036,0.1069
29.940435,0.3228
29.950563,0.3742
29.960647,0.4333
29.970731,0.465
29.980867,0.4165
29.990968,0.3049
30.001083,0.1462
30.011064,-0.0305
30.021036,0.0506
30.031312,0.1226
30.041263,-0.2927
30.0512,-0.9062
30.061092,-1.0
30.07098,-1.0
30.080835,-1.0
30.090692,-1.0
30.099016,-1.0
30.108928,-0.7471
30.118848,-0.3436
30.128799,-0.0031
30.138832,-0.0085
30.148931,0.25
30.159055,0.4699
30.169136,0.5444
30.179231,0.6022
30.189388,0.5148
30.199491,0.3651
30.20964,0.2965
30.219743,0.2115
30.229852,0.1487
30.239967,0.0591
30.249872,-0.7021
30.259824,-1.0
30.269735,-1.0
30.279632,-0.9838
30.289552,-1.0
30.299428,-1.0
30.309328,-1.0
30.319259,-0.5571
30.329196,-0.2557
30.339128,-0.0762
30.347503,-0.0077
30.357627,0.2412
30.367715,0.4071
30.378004,0.4213
30.388067,0.3804
30.398147,0.2938
30.408264,0.2194
30.418367,0.0606
30.428483,0.1005
30.438552,0.1834
30.448623,0.2662
30.458732,0.3485
30.468887,0.0618
30.478803,-0.4408
30.488712,-0.6659
30.498643,-0.8301
30.508556,-1.0
30.51844,-1.0
30.528299,-0.9729
30.538208,-0.4729
30.54812,-0.1067
30.558036,-0.1217
30.567983,-0.2384
30.577903,-0.4143
30.587795,-0.3349
30.59782,0.2415
30.607919,0.4295
30.618087,0.3264
30.628179,0.309
30.638259,0.3957
30.648351,0.4164
30.658447,0.3245
30.668592,0.2038
30.678707,0.108
30.688812,0.1164
30.698848,-0.0973
30.7103,-0.6686
30.720268,-0.9138
30.730167,-1.0
30.74006,-1.0
30.749916,-1.0
30.759807,-1.0
30.769716,-0.7908
30.779632,-0.4304
30.789531,-0.071
30.799459,-0.062
30.809375,-0.0526
30.819511,0.3395
30.829616,0.5511
30.839904,0.473
30.849983,0.3191
30.860071,0.3692
30.870183,0.4039
30.880271,0.3202
30.890375,0.109
30.900283,-0.2545
30.9102,-0.4142
30.920135,-0.5047
30.930044,-0.4885
30.939939,-0.4945
30.94984,-0.5849
30.959735,-0.5734
30.969648,-0.8045
30.979524,-1.0
30.989383,-1.0
30.999271,-0.722
31.009187,-0.0239
31.0177,0.2608
31.027759,0.344
31.037839,0.3722
31.047983,0.3476
31.058059,0.3357
31.068172,0.3047
31.078264,0.2399
31.088367,0.1653
31.098436,-0.0587
31.108327,-0.2701
31.11824,-0.2982
31.128156,-0.3519
31.138084,-0.3962
31.147991,-0.4077
31.157911,-0.499
31.167856,-0.4543
31.177783,-0.4378
31.187683,-0.5666
31.197595,-0.5551
31.207515,-0.6091
31.217416,-0.6099
31.225799,-0.4046
31.235704,-0.0591
31.245811,0.1136
31.255931,0.1845
31.266031,0.2362
31.27634,0.1569
31.286451,0.0218
31.296356,-0.1718
31.306276,-0.0815
31.316331,0.0758
31.326467,-0.007
31.336364,-0.0385
31.346424,0.0616
31.356527,0.0007
31.366424,-0.2611
31.376363,-0.7631
31.386283,-1.0
31.396171,-1.0
31.406059,-0.7858
31.415964,-0.5087
31.425903,-0.507
31.435815,-0.1389
31.444284,0.141
31.454423,0.0303
31.464319,-0.2938
31.474231,-0.4048
31.484235,0.1106
31.494327,0.4111
31.504472,0.4324
31.514572,0.3898
31.524688,0.284
31.534803,0.1313
31.544923,0.0179
31.554847,-0.0366
31.564779,-0.1303
31.574695,-0.6781
31.584651,-1.0
31.594572,-1.0
31.60448,-1.0
31.614347,-1.0
31.624223,-1.0
31.634128,-1.0
31.642467,-1.0
31.652376,-0.3488
31.662467,0.3524
31.67276,0.3164
31.6828,-0.1675
31.692684,-0.4501
31.702583,-0.4426
31.712476,-0.5031
31.722383,-0.2226
31.7325,0.3181
31.742588,0.5276
31.752752,0.4795
31.762859,0.1138
31.772792,-0.3267
31.782732,-0.2854
31.792659,-0.2754
31.802587,-0.3045
31.812507,-0.2508
31.822399,-0.2966
31.832336,-0.3118
31.840703,-0.3082
31.850612,-0.284
31.860515,-0.2583
31.87042,-0.2738
31.88034,-0.29
31.890224,-0.32
31.900112,-0.3469
31.908451,-0.3553
31.918359,-0.3065
31.928279,-0.08
31.938375,0.0607
31.948471,0.097
31.95874,0.066
31.968772,-0.0125
31.978687,-0.0792
31.988632,-0.1452
31.998559,-0.1139
32.008514,0.0194
32.018512,-0.0835
32.02843,-0.3774
32.038364,-0.6844
32.048274,-0.6292
32.058174,-0.553
32.066513,-0.5837
32.076431,-0.6032
32.086372,-0.387
32.096294,-0.2969
32.106189,-0.481
32.116073,-0.5462
32.125965,-0.5041
32.134315,-0.3829
32.14434,0.0476
32.154434,0.3541
32.164562,0.3566
32.174655,0.2706
32.184745,0.1983
32.194896,0.0227
32.204814,-0.1667
32.214725,-0.1883
32.224662,-0.2169
32.234592,-0.1265
32.244564,-0.0342
32.254501,-0.0734
32.264419,-0.5396
32.274307,-1.0
32.284183,-1.0
32.292537,-1.0
32.302429,-1.0
32.312309,-0.6436
32.32228,0.0426
32.33253,0.1708
32.34259,-0.0872
32.352474,-0.4768
32.362358,-0.5282
32.372283,-0.0303
32.382381,0.4185
32.392559,0.4131
32.402675,0.1125
32.412586,-0.1214
32.42266,0.1326
32.432754,0.2952
32.44292,0.3478
32.453029,0.0943
32.462947,-0.3631
32.472846,-0.3573
32.482772,-0.3944
32.49271,-0.4403
32.502597,-0.761
32.512489,-0.7643
32.520854,-0.573
32.530765,-0.1657
32.540729,0.0175
32.55083,0.0281
32.560787,-0.0257
32.570899,0.1421
32.580982,0.2376
32.591125,0.2285
32.601249,0.12
32.611251,-0.0745
32.621189,-0.0457
32.631118,-0.0148
32.641036,-0.0054
32.651157,0.1055
32.661445,0.0419
32.67136,-0.2423
32.681278,-0.685
32.691184,-1.0
32.701114,-0.9407
32.711017,-0.7887
32.720905,-0.8222
32.729232,-0.7712
32.739139,-0.6124
32.749084,-0.1535
32.759014,-0.0807
32.768924,-0.172
32.778961,0.0646
32.78907,0.1769
32.799163,0.3366
32.809257,0.476
32.819381,0.4051
32.829483,0.1729
32.83958,0.1387
32.849712,0.1542
32.859821,0.1797
32.869918,0.1025
32.879894,-0.2556
32.889797,-0.7966
32.899738,-1.0
32.909633,-1.0
32.919498,-1.0
32.929382,-0.9426
32.939304,-0.8189
32.949214,-0.8096
32.957584,-0.7309
32.967475,-0.7388
32.977378,-0.4793
32.987407,0.1859
32.997497,0.4454
33.007801,0.4994
33.017871,0.3807
33.027954,0.2403
33.038032,0.2065
33.04811,0.0852
33.058223,0.1552
33.068325,0.2507
33.078422,0.054
33.08831,-0.3959
33.09822,-0.6509
33.108139,-0.8407
33.118045,-0.7772
33.127971,-0.391
33.137889,-0.2703
33.147796,-0.4085
33.157718,-0.5364
33.167633,-0.5853
33.175998,-0.5239
33.185901,-0.4103
33.195812,-0.1198
33.205955,0.2668
33.216045,0.3518
33.226184,0.2706
33.236282,0.1653
33.246387,0.0462
33.256565,0.0779
33.266666,0.0477
33.276649,-0.067
33.286682,0.0124
33.296607,-0.2482
33.306533,-0.6199
33.316459,-0.9217
33.326396,-1.0
33.336288,-0.9837
33.34621,-0.6228
33.356155,-0.6538
33.366073,-0.8677
33.375984,-1.0
33.385879,-1.0
33.394203,-0.8999
33.404113,-0.037
33.414241,0.3193
33.424346,0.4309
33.43465,0.4114
33.444747,0.3084
33.454826,0.4011
33.464927,0.3582
33.475025,0.3571
33.485111,0.3409
33.495204,0.2271
33.505157,-0.359
33.51509,-0.5591
33.525001,-0.7164
33.534881,-0.7562
33.544803,-0.6448
33.554695,-0.6106
33.56462,-0.481
33.574527,-0.4328
33.584449,-0.4753
33.594341,-0.3643
33.604267,-0.1035
33.612743,0.074
33.62284,0.1863
33.632923,0.2352
33.643066,0.2451
33.65316,0.1315
33.663299,0.006
33.673229,-0.0903
33.683155,-0.1063
33.693237,0.0941
33.703376,0.1257
33.713424,-0.0892
33.723335,-0.4893
33.733264,-0.7919
33.743175,-0.8159
33.753074,-0.8161
33.763008,-0.7364
33.772911,-0.4739
33.782829,-0.2863
33.792747,-0.2725
33.802661,-0.1544
33.812728,0.0773
33.82283,0.1848
33.832904,0.2351
33.84317,0.2335
33.85326,0.1215
33.863384,0.0192
33.873332,-0.1252
33.883277,-0.1913
33.893196,-0.078
33.903205,0.0386
33.913265,-0.039
33.923191,-0.4035
33.933113,-1.0
33.941467,-1.0
33.951377,-1.0
33.961269,-1.0
33.971172,-1.0
33.981086,-0.662
33.991012,-0.3875
34.000926,-0.3003
34.010814,-0.2544
34.019241,0.0516
34.029338,0.2481
34.039436,0.2971
34.049533,0.3808
34.05965,0.41
34.069751,0.4046
34.079853,0.3039
34.089946,0.2529
34.100055,0.2898
34.110149,0.2422
34.120193,-0.1736
34.130123,-0.586
34.140041,-0.6647
34.149951,-0.773
34.159866,-0.8332
34.169784,-0.7032
34.179691,-0.6263
34.189632,-0.5202
34.199531,-0.4543
34.209449,-0.189
34.219379,-0.0887
34.229305,-0.0736
34.239227,-0.076
34.24765,0.0117
34.257759,0.1565
34.268543,0.186
34.278671,0.1344
34.288764,0.1224
34.298843,0.1395
34.308944,0.1095
34.319038,0.017
34.328987,-0.1236
34.338935,-0.1504
34.34885,-0.3531
34.358753,-0.7981
34.368686,-1.0
34.378604,-1.0
34.388496,-1.0
34.398399,-0.9332
34.408313,-0.8765
34.418212,-0.8222
34.428161,-0.8397
34.438087,-0.6409
34.448001,-0.3767
34.457973,0.033
34.468055,0.2824
34.478214,0.3368
34.488315,0.3204
34.498432,0.3869
34.508533,0.4205
34.518638,0.2917
34.528797,0.1747
34.538917,0.1221
34.549003,-0.0515
34.558902,-0.1913
34.568828,-0.47
34.57875,-0.9594
34.58863,-0.997
34.598518,-0.8247
34.608448,-0.4788
34.618347,-0.4833
34.628292,-0.7045
34.636631,-1.0
34.646518,-1.0
34.656398,-1.0
34.666267,-1.0
34.676166,-0.6713
34.686122,-0.012
34.696212,0.445
34.706275,0.5405
34.717048,0.5424
34.727134,0.5262
34.737255,0.4321
34.747348,0.3424
34.757461,0.0115
34.767353,-0.3416
34.777282,-0.1797
34.787258,-0.1558
34.797199,-0.3668
34.80709,-1.0
34.816944,-1.0
34.826812,-1.0
34.836727,-0.5978
34.846641,-0.1192
34.855098,0.1673
34.865184,0.3202
34.875308,0.2633
34.88533,-0.296
34.895233,-0.4117
34.90517,-0.1317
34.915237,0.2163
34.92538,0.2919
34.935501,0.1977
34.945613,0.0701
34.955577,-0.1527
34.965496,-0.2273
34.975471,0.0555
34.985576,0.2539
34.995868,0.1245
35.005836,-0.2265
35.015731,-0.4111
35.025661,-0.5309
35.035583,-0.5277
35.04549,-0.4423
35.055385,-0.3683
35.065292,-0.3038
35.075183,-0.2734
35.085086,-0.2952
35.093452,-0.2732
35.103378,-0.2295
35.113323,-0.0929
35.123348,0.0385
35.133453,0.0207
35.14339,-0.0729
35.153327,-0.1559
35.163276,-0.1585
35.173221,-0.1714
35.183162,-0.0796
35.193199,0.0522
35.203227,-0.0796
35.213146,-0.2472
35.223068,-0.5316
35.231452,-0.7141
35.241416,-0.7466
35.251342,-0.8136
35.26126,-0.7495
35.271163,-0.5388
35.281078,-0.4928
35.291004,-0.4605
35.300903,-0.4486
35.309238,-0.6008
35.319137,-0.5787
35.329109,0.033
35.339176,0.4005
35.349475,0.4424
35.359584,0.2774
35.369655,-0.0067
35.379577,-0.0812
35.389495,-0.071
35.399539,0.0225
35.409568,-0.1577
35.419483,-0.6847
35.429393,-0.9264
35.439311,-0.4974
35.449241,-0.5476
35.459148,-0.9422
35.469047,-1.0
35.477375,-1.0
35.487289,-0.4945
35.497222,-0.1785
35.507305,0.2845
35.517448,0.2499
35.527542,0.1361
35.537647,0.1996
35.547779,0.3558
35.557895,0.3571
35.568,0.2509
35.578086,0.2519
35.588184,0.2862
35.59832,0.1314
35.608409,-0.0167
35.618331,-0.1274
35.628276,-0.1242
35.638175,-0.4549
35.648117,-1.0
35.658031,-1.0
35.667915,-1.0
35.677806,-1.0
35.687683,-1.0
35.697589,-1.0
35.707485,-0.513
35.715885,0.0599
35.725959,0.3035
35.736049,0.4414
35.746307,0.3539
35.756431,0.3901
35.766544,0.4904
35.776653,0.2414
35.786746,0.4214
35.796829,0.6142
35.806957,0.5682
35.817077,0.3087
35.827045,-0.3493
35.836952,-0.435
35.846855,-0.334
35.856796,-0.1605
35.866737,-0.2897
35.876636,-0.6724
35.886543,-0.7317
35.896438,-0.8869
35.906349,-0.838
35.916233,-0.7193
35.926147,-0.7344
35.93605,-0.7226
35.945945,-0.4413
35.954296,-0.1845
35.96426,-0.0979
35.974262,0.103
35.984329,0.2633
35.994422,0.3079
36.004566,0.3375
36.014694,0.2536
36.024787,0.2622
36.034866,0.3689
36.044963,0.1908
36.054908,-0.1876
36.064823,-0.2194
36.074726,-0.3288
36.084636,-0.4336
36.094524,-0.5369
36.104412,-0.653
36.114326,-0.5985
36.124248,-0.4735
36.134155,-0.4981
36.142517,-0.5057
36.152416,-0.2644
36.162361,-0.0464
36.172275,-0.083
36.182182,-0.2693
36.1921,-0.2856
36.202163,0.3815
36.212272,0.5412
36.222568,0.3776
36.232677,0.064
36.242752,0.2451
36.252834,0.3539
36.262985,0.3661
36.273078,0.3887
36.283184,0.2433
36.293209,-0.2637
36.303123,-0.6132
36.31306,-0.6969
36.32299,-0.4899
36.332904,-0.2716
36.342819,-0.1905
36.352729,-0.3867
36.362651,-0.6595
36.372577,-0.7462
36.380928,-0.698
36.390823,-0.4535
36.400726,-0.3182
36.410644,-0.1405
36.420745,0.1725
36.430889,0.1823
36.440975,0.0229
36.45108,0.035
36.461105,-0.0514
36.471073,-0.0636
36.481094,0.0359
36.491188,0.1245
36.501483,0.0084
36.511371,-0.3055
36.521335,-0.4416
36.531242,-0.302
36.541156,-0.4548
36.551048,-0.4688
36.560932,-0.4842
36.56929,-0.603
36.579185,-0.6438
36.589084,-0.4889
36.598987,-0.2115
36.608894,-0.2237
36.61882,-0.3889
36.6287,-0.6388
36.637031,-0.7027
36.646934,-0.0794
36.657024,0.2545
36.667156,0.2088
36.677284,0.1158
36.6874,0.1594
36.697486,0.2635
36.707592,0.3417
36.717685,0.3208
36.727802,0.111
36.737747,-0.3778
36.74768,-0.4066
36.757583,-0.4519
36.767478,-0.4143
36.777439,-0.2646
36.787391,-0.145
36.797325,-0.2109
36.807209,-0.3467
36.817096,-0.4105
36.827011,-0.4715
36.836921,-0.3702
36.845291,-0.1284
36.855384,0.0502
36.865444,-0.0335
36.875389,-0.1843
36.885368,0.0309
36.895431,0.3681
36.905712,0.3416
36.915798,0.1388
36.925922,0.029
36.935913,-0.0722
36.945816,-0.3948
36.955718,-0.4954
36.965625,-0.7388
36.97554,-0.8929
36.985431,-0.8795
36.995349,-0.6348
37.005252,-0.2865
37.015171,-0.1152
37.023555,-0.1288
37.033557,0.0399
37.043689,0.1188
37.053627,-0.234
37.063526,-0.566
37.073432,-0.2993
37.083381,-0.0137
37.093475,0.2298
37.103557,0.4527
37.113689,0.447
37.123783,0.2588
37.133922,0.0711
37.143913,-0.1092
37.153816,-0.3262
37.16373,-0.3642
37.173645,-0.3908
37.183555,-0.5143
37.193485,-0.6199
37.203399,-0.6658
37.211734,-0.6048
37.221637,-0.6506
37.231555,-0.6179
37.241493,-0.4891
37.251411,-0.205
37.261402,0.0129
37.271415,-0.0109
37.281375,-0.0144
37.29145,0.0478
37.301555,0.0155
37.311656,0.0083
37.321563,-0.068
37.331592,0.0101
37.341712,0.0123
37.351676,-0.0493
37.361587,-0.0278
37.36996,-0.0246
37.379882,-0.2202
37.389801,-0.7883
37.399688,-1.0
37.409561,-1.0
37.419445,-1.0
37.429363,-0.6265
37.439277,-0.3531
37.447631,-0.512
37.457534,-1.0
37.467411,-1.0
37.477287,-0.7132
37.487258,-0.0113
37.497364,0.2829
37.507648,0.3994
37.517719,0.3786
37.527828,0.5468
37.537952,0.5952
37.548053,0.4893
37.558135,0.3971
37.568229,0.3334
37.578334,0.098
37.588272,-0.3462
37.598186,-0.3787
37.608123,-0.4387
37.618045,-0.387
37.627948,-0.3999
37.637878,-0.3948
37.647785,-0.64
37.657672,-0.7171
37.666042,-0.4912
37.675945,-0.2697
37.685905,-0.1651
37.695831,-0.2609
37.705718,-0.3007
37.71569,0.0143
37.725772,0.3707
37.735881,0.5003
37.746025,0.4779
37.756111,0.3333
37.766223,0.1523
37.77634,0.1081
37.786388,-0.1154
37.796329,-0.0163
37.80661,0.1391
37.816574,-0.2027
37.826469,-0.7015
37.836395,-1.0
37.846309,-1.0
37.856204,-0.7907
37.866115,-0.8135
37.876041,-0.6134
37.884384,-0.7089
37.894313,-0.96
37.904186,-1.0
37.914077,-0.641
37.924072,0.2657
37.934211,0.3964
37.944328,0.1996
37.954429,0.1391
37.964538,0.4316
37.974628,0.5293
37.984729,0.4547
37.994842,0.3689
38.004951,0.1768
38.015056,0.1055
38.025001,-0.2916
38.034904,-0.5637
38.044834,-0.8796
38.054729,-1.0
38.064601,-1.0
38.074466,-0.7353
38.084365,-0.428
38.092739,-0.3059
38.102645,-0.3711
38.112567,-0.4556
38.122482,-0.5616
38.132408,-0.2798
38.142452,0.167
38.152755,0.2695
38.162853,0.1107
38.172977,0.0492
38.183071,0.1203
38.193206,0.205
38.203273,0.2411
38.213359,0.2721
38.22348,0.0578
38.233375,-0.2358
38.243316,-0.417
38.253238,-0.564
38.263145,-0.7083
38.273044,-0.6906
38.282928,-0.5637
38.292869,-0.4321
38.302818,-0.2922
38.312728,-0.2488
38.321075,-0.3226
38.330978,-0.4213
38.340877,-0.3511
38.350807,-0.0559
38.360908,0.2123
38.371028,0.2467
38.381111,0.1153
38.391151,-0.0622
38.401119,-0.1317
38.411144,0.1263
38.421283,0.2179
38.431388,0.1926
38.441486,0.0605
38.451423,-0.3546
38.461334,-0.6009
38.471214,-0.7059
38.481105,-0.6252
38.490993,-0.5015
38.499351,-0.4002
38.509235,-0.2992
38.519142,-0.3041
38.529048,-0.2874
38.53894,-0.3096
38.548862,-0.3788
38.558769,-0.2653
38.568687,-0.0341
38.577213,0.0857
38.587291,0.1807
38.597553,0.1229
38.607608,-0.0937
38.617523,-0.1157
38.627452,-0.0489
38.637355,-0.0398
38.64727,-0.0776
38.657207,-0.1806
38.667133,-0.2323
38.677062,-0.3401
38.686977,-0.3988
38.696891,-0.262
38.70684,-0.3486
38.71519,-0.6033
38.725082,-0.956
38.734977,-0.9313
38.744888,-0.6801
38.754798,-0.5702
38.764701,-0.3333
38.77462,-0.2582
38.784526,-0.3556
38.792881,-0.5839
38.80278,-0.8502
38.812713,-0.3116
38.822734,0.2111
38.832843,0.4354
38.842975,0.4695
38.853088,0.2608
38.863227,0.1685
38.873332,0.1775
38.883369,-0.141
38.893283,-0.4085
38.903182,-0.685
38.913112,-0.6907
38.923007,-0.9695
38.932899,-0.8106
38.942821,-0.3484
38.952732,-0.153
38.961124,-0.2229
38.97105,-0.4392
38.98096,-0.112
38.991004,0.056
39.001003,-0.1097
39.010936,-0.2266
39.020999,0.4377
39.031066,0.5461
39.041126,0.5868
39.051387,0.5407
39.061481,0.436
39.071556,0.3572
39.081638,0.3417
39.091724,0.3241
39.10181,0.3645
39.111927,0.3508
39.121978,-0.2864
39.131893,-0.7265
39.141826,-0.8724
39.151767,-0.8511
39.161712,-0.7634
39.171653,-0.4973
39.181568,-0.3968
39.191478,-0.3081
39.201393,-0.4108
39.211341,-0.4666
39.221267,-0.2709
39.229648,-0.0402
39.239784,0.0602
39.249897,0.0717
39.259994,0.1557
39.270172,0.112
39.2803,0.08
39.290336,-0.0336
39.300251,-0.2688
39.310173,-0.1011
39.32027,0.0998
39.330459,-0.0903
39.34037,-0.5967
39.350257,-1.0
39.360172,-0.8615
39.370124,-0.4064
39.380023,-0.6022
39.389892,-0.9346
39.399795,-0.7389
39.409698,-0.5166
39.419624,-0.2348
39.429561,-0.0676
39.437919,-0.0485
39.447978,0.2239
39.458141,0.1723
39.46812,-0.2419
39.478046,-0.1558
39.488082,0.1339
39.498172,0.2901
39.508319,0.2437
39.518447,0.112
39.52856,0.062
39.538627,0.2205
39.548763,0.194
39.55883,-0.0656
39.568763,-0.5419
39.578662,-1.0
39.588542,-1.0
39.598419,-0.9291
39.608314,-0.5892
39.618225,-0.1757
39.628345,0.1339
39.638446,0.1642
39.64875,0.0178
39.658653,-0.059
39.66856,-0.0741
39.678527,-0.116
39.688468,-0.2323
39.698371,-0.5228
39.708335,0.1227
39.718395,0.4482
39.728572,0.3766
39.738681,0.3458
39.748764,0.5232
39.758857,0.4349
39.768848,-0.3392
39.7788,-0.5714
39.788703,-0.8174
39.798603,-0.8442
39.808483,-0.8473
39.816829,-0.7964
39.826766,-0.5767
39.836692,-0.2302
39.846622,-0.1682
39.856525,-0.4325
39.866413,-0.7147
39.87635,-0.5374
39.884708,-0.1967
39.894718,0.0844
39.904788,0.2447
39.914875,0.3713
39.925182,0.4258
39.935276,0.3001
39.945377,0.0238
39.955345,0.0171
39.965415,0.1819
39.975517,0.2514
39.985645,0.2754
39.995735,0.0806
40.005645,-0.3404
40.015537,-0.5051
40.025455,-0.6018
40.035335,-0.6971
40.045215,-0.6769
40.05511,-0.4969
40.064998,-0.3372
40.07492,-0.2526
40.084861,-0.1986
40.094776,-0.0756
40.104858,0.0561
40.114944,0.0871
40.125045,0.1605
40.135215,0.1106
40.145324,0.0583
40.155429,0.0526
40.165534,0.0413
40.175628,0.08
40.185771,0.0867
40.195899,0.1331
40.205921,-0.0902
40.215827,-0.4537
40.225746,-0.8925
40.235698,-0.9667
40.245616,-0.7604
40.255516,-0.557
40.265403,-0.4286
40.275299,-0.3516
40.283687,-0.3122
40.293609,-0.2778
40.303508,-0.1852
40.313423,-0.1373
40.323352,-0.1069
40.333404,0.0694
40.343494,0.1825
40.353771,0.1681
40.363838,-0.0456
40.373764,-0.0882
40.383708,-0.019
40.393806,0.0944
40.403923,0.1055
40.413948,-0.0917
40.423873,-0.4367
40.433807,-0.7016
40.443721,-0.7734
40.453662,-0.6412
40.463588,-0.4947
40.471927,-0.5629
40.481861,-0.5964
40.491771,-0.5226
40.501712,-0.3907
40.511615,-0.2195
40.521522,-0.0723
40.531547,0.0198
40.541694,0.0951
40.551784,0.2056
40.561862,0.2515
40.572021,0.1904
40.582103,0.0784
40.592121,-0.1053
40.602054,-0.1782
40.611972,-0.1784
40.621875,-0.1873
40.63179,-0.3036
40.640174,-0.5039
40.650081,-0.7429
40.659973,-0.8591
40.669868,-0.7943
40.679767,-0.5619
40.689689,-0.3397
40.699588,-0.1829
40.709491,-0.3197
40.717826,-0.5373
40.727752,-0.4612
40.737663,-0.2177
40.747661,0.0145
40.75793,0.1157
40.768001,0.0979
40.778068,0.1105
40.788154,0.0647
40.79829,0.0262
40.808387,0.0772
40.818447,0.1916
40.828525,0.2808
40.838649,0.2559
40.84877,0.0651
40.858688,-0.2942
40.868602,-0.5036
40.878536,-0.5756
40.888454,-0.5331
40.898384,-0.4689
40.908279,-0.4189
40.918186,-0.3254
40.928096,-0.3516
40.937999,-0.4128
40.94794,-0.3917
40.956295,-0.3027
40.966213,-0.1927
40.976146,-0.1312
40.986076,-0.0508
40.9962,0.1477
41.006278,0.2103
41.016403,0.1825
41.026447,-0.0146
41.036373,-0.2432
41.046321,-0.3119
41.056247,-0.3689
41.066177,-0.3016
41.076095,-0.2762
41.085983,-0.3941
41.094329,-0.4652
41.104263,-0.3224
41.114192,-0.1877
41.124156,-0.1356
41.134105,-0.2918
41.144004,-0.5653
41.153942,-0.5329
41.163898,-0.2367
41.17382,-0.0783
41.18217,-0.0338
41.192295,0.1462
41.20243,0.233
41.212516,0.3523
41.222835,0.1263
41.232776,-0.294
41.242687,-0.2935
41.252647,-0.1539
41.262577,-0.0052
41.272682,0.0363
41.282817,0.0726
41.292823,-0.0987
41.302761,-0.4074
41.31266,-0.7548
41.322574,-0.6876
41.332508,-0.479
41.342407,-0.5299
41.35231,-0.7213
41.362209,-0.7327
41.372108,-0.5811
41.380458,-0.2527
41.390514,0.1931
41.400688,0.247
41.41077,0.2943
41.420875,0.3301
41.430965,0.2935
41.441066,0.1961
41.451198,0.1144
41.461315,0.018
41.47142,0.096
41.481491,0.1813
41.491764,0.2131
41.501876,0.0608
41.51181,-0.2143
41.52172,-0.5381
41.531635,-0.7609
41.54153,-0.7645
41.551437,-0.6635
41.561386,-0.5944
41.571296,-0.5046
41.581207,-0.4567
41.59111,-0.3387
41.601043,-0.1724
41.611011,-0.0996
41.620941,-0.1466
41.630878,-0.1533
41.6408,-0.0748
41.650711,-0.1491
41.659111,-0.1952
41.669036,-0.0524
41.679157,0.213
41.689239,0.3914
41.699363,0.4144
41.709484,0.2778
41.719448,-0.3489
41.729381,-0.4535
41.739303,-0.5011
41.749206,-0.6037
41.759136,-0.5939
41.76905,-0.5498
41.778949,-0.5577
41.788864,-0.4306
41.798755,-0.5607
41.807098,-0.6414
41.817016,-0.5664
41.826942,-0.2199
41.836982,0.0758
41.847099,0.2915
41.857364,0.1747
41.867496,0.0556
41.877578,0.2423
41.887718,0.2041
41.897838,0.0298
41.907764,-0.1184
41.917739,-0.1704
41.927642,-0.0028
41.937778,0.1176
41.947795,-0.0631
41.957729,-0.214
41.967674,-0.5925
41.977592,-0.8419
41.987518,-0.9279
41.997421,-0.9588
42.007312,-0.9054
42.017234,-0.5472
42.025592,-0.3353
42.035499,-0.5512
42.045394,-0.6159
42.05532,-0.0771
42.065437,0.2354
42.075572,0.1973
42.085678,0.0605
42.095775,0.2118
42.105846,0.3418
42.116008,0.3399
42.126098,0.322
42.136184,0.3201
42.146301,0.1683
42.156257,-0.3091
42.166172,-0.4182
42.176086,-0.4356
42.186004,-0.4551
42.195899,-0.4557
42.20578,-0.4398
42.215671,-0.4524
42.225566,-0.5486
42.235469,-0.5551
42.243812,-0.5374
42.253726,-0.4613
42.263648,-0.1575
42.273685,0.0648
42.28376,0.1196
42.294033,0.1343
42.304122,0.0179
42.314025,-0.0786
42.324062,0.0608
42.334171,0.1416
42.344276,0.078
42.354354,0.041
42.36444,0.0262
42.374439,-0.0777
42.384361,-0.3712
42.394283,-0.7643
42.404205,-0.9033
42.41407,-0.7618
42.423999,-0.4815
42.433914,-0.2904
42.443824,-0.2921
42.452194,-0.371
42.462093,-0.4674
42.472019,-0.421
42.481937,-0.3088
42.491897,0.005
42.501991,0.1498
42.512138,0.1151
42.522285,0.1097
42.532379,0.1706
42.542469,0.0953
42.552581,0.1691
42.562671,0.2292
42.572788,0.2203
42.582893,0.0759
42.592876,-0.2096
42.602779,-0.6074
42.612701,-0.7117
42.622657,-0.6592
42.632579,-0.4893
42.642494,-0.4109
42.652393,-0.3911
42.662311,-0.3674
42.672264,-0.2457
42.680618,-0.1534
42.690536,-0.212
42.700431,-0.3341
42.710327,-0.3467
42.720214,-0.1713
42.730331,0.2092
42.740425,0.3334
42.750499,0.4037
42.760772,0.361
42.770851,0.1983
42.78091,-0.1161
42.790798,-0.2405
42.800689,-0.1779
42.810588,-0.1682
42.820487,-0.4708
42.830413,-0.7837
42.838794,-0.8935
42.848712,-0.9943
42.858619,-0.8462
42.868522,-0.5759
42.878463,-0.4476
42.888404,-0.1695
42.898334,-0.0605
42.908267,-0.3151
42.918182,-1.0
42.926536,-0.3059
42.936649,0.5205
42.946727,0.5912
42.956867,0.5734
42.966968,0.3505
42.977088,0.0794
42.987216,0.2628
42.997314,0.4425
43.007427,0.4452
43.017528,0.2174
43.027496,-0.5236
43.037433,-0.7242
43.04734,-0.9387
43.057239,-0.8904
43.067138,-0.8086
43.077037,-0.6487
43.086982,-0.366
43.096889,-0.3089
43.106784,-0.2082
43.116695,-0.23
43.126602,-0.2715
43.136562,-0.165
43.145053,0.1663
43.155364,0.2409
43.16547,0.2479
43.175559,0.265
43.185699,0.0991
43.195823,0.0197
43.205902,-0.0023
43.215995,0.0734
43.226131,0.0693
43.23611,-0.2741
43.246044,-0.646
43.255935,-0.7776
43.26583,-1.0
43.275711,-0.9387
43.285655,-0.8593
43.295555,-0.7369
43.305461,-0.9835
43.315361,-0.9562
43.325279,-0.8831
43.335201,-0.2749
43.345306,0.2089
43.355388,0.3517
43.365512,0.3635
43.375595,0.3013
43.385707,0.3913
43.395835,0.4358
43.405941,0.4544
43.416034,0.5083
43.426109,0.4557
43.436195,0.2908
43.446228,-0.3052
43.456127,-0.4349
43.466049,-0.298
43.475952,-0.2587
43.485858,-0.3384
43.495803,-0.5339
43.505695,-0.6685
43.515579,-0.6217
43.523937,-0.4129
43.533866,-0.1424
43.543834,-0.0639
43.553771,-0.1153
43.563709,-0.1972
43.573635,-0.1
43.583686,0.1416
43.594013,0.0145
43.6039,-0.0028
43.613971,0.0165
43.623901,-0.1192
43.633815,-0.0715
43.643737,-0.0839
43.65377,0.1223
43.663852,0.3031
43.673995,0.0608
43.683891,-0.3949
43.69382,-0.5236
43.702205,-0.7427
43.712093,-0.8352
43.721988,-0.6285
43.731868,-0.4294
43.741764,-0.3538
43.751701,-0.3552
43.761604,-0.3535
43.771541,-0.2302
43.779922,-0.1462
43.789855,-0.015
43.799999,0.1263
43.81015,0.1423
43.820243,0.1084
43.830333,0.0835
43.840415,0.0885
43.850521,0.0657
43.860538,-0.0841
43.87046,-0.2224
43.880363,-0.1861
43.890289,-0.0707
43.900222,-0.2668
43.910106,-0.7715
43.920013,-1.0
43.929874,-1.0
43.939743,-1.0
43.948078,-1.0
43.957977,-1.0
43.967872,-0.9734
43.977798,-0.6903
43.98772,-0.0458
43.997791,-0.0532
44.007728,-0.1775
44.017833,0.3855
44.028587,0.4132
44.038673,0.4206
44.048763,0.5211
44.058883,0.5709
44.068946,0.5367
44.079036,0.4694
44.089118,0.4484
44.099227,0.2139
44.109214,-0.354
44.119144,-0.5826
44.129055,-0.7204
44.138961,-0.752
44.148853,-0.8164
44.158775,-0.6308
44.168674,-0.6005
44.178577,-0.3929
44.188499,-0.0634
44.198623,0.101
44.208801,0.1572
44.218925,0.0579
44.228832,-0.3157
44.238727,-0.4638
44.248645,-0.1921
44.258708,0.1134
44.26881,0.2338
44.278949,0.225
44.289035,0.1122
44.299144,0.0059
44.309066,-0.0705
44.318984,-0.0908
44.328887,-0.3858
44.338817,-0.7831
44.347179,-0.9309
44.357093,-0.8263
44.367019,-0.9153
44.376918,-1.0
44.38681,-1.0
44.396728,-0.5659
44.406658,-0.2655
44.416606,-0.1463
44.424983,-0.3063
44.434886,-0.6318
44.444797,-0.5325
44.454696,-0.5566
44.46463,-0.311
44.474693,0.365
44.484764,0.4216
44.494876,0.4512
44.505653,0.4261
44.515762,0.3189
44.525844,0.3169
44.535915,0.3146
44.545928,-0.2287
44.555835,-0.4654
44.565773,-0.5609
44.575687,-0.5309
44.585609,-0.3516
44.595535,-0.3063
44.605422,-0.3689
44.615364,-0.2352
44.625301,-0.1563
44.635246,-0.083
44.645168,-0.084
44.655071,-0.2329
44.66341,-0.6828
44.673339,-1.0
44.683235,-0.8117
44.693233,0.1256
44.70333,0.5061
44.713447,0.5388
44.723579,0.4373
44.733711,0.1611
44.743824,0.3461
44.753932,0.3976
44.764049,0.3254
44.774188,0.1963
44.784107,-0.5199
44.79401,-0.6356
44.803878,-0.6903
44.813762,-0.6596
44.823688,-0.6923
44.83358,-1.0
44.843444,-0.9247
44.853343,-0.5593
44.861682,-0.2661
44.871723,0.1242
44.882015,0.1127
44.89196,-0.1861
44.901844,-0.3442
44.911754,-0.0905
44.921802,0.1687
44.931919,0.2627
44.942012,0.3868
44.952144,0.3288
44.962242,0.0869
44.972347,0.0495
44.982452,0.1754
44.992607,0.0653
45.002506,-0.3186
45.012413,-0.5517
45.022319,-0.7315
45.032253,-0.3153
45.042163,-0.4455
45.052043,-1.0
45.061889,-1.0
45.071758,-0.9629
45.081699,-0.2049
45.090068,-0.001
45.100051,-0.0447
45.109966,-0.0401
45.120082,0.0235
45.130027,-0.1286
45.139999,-0.5108
45.150024,-0.4039
45.160045,-0.3338
45.170135,-0.2878
45.180248,-0.2576
45.190322,-0.2378
45.200424,-0.2248
45.210502,-0.2163
45.220565,-0.2107
45.230632,-0.207
45.240684,-0.2046
45.250732,-0.203
45.26078,-0.202
45.270832,-0.2013
45.28091,-0.2009
45.290958,-0.2006
45.300987,-0.2004
45.311019,-0.2002
45.321063,-0.2002
45.331127,-0.2001
45.341201,-0.2001
45.351295,-0.2
45.361366,-0.2
45.37141,-0.2
45.381458,-0.2
45.391551,-0.2
45.401649,-0.2
45.411716,-0.2
45.421779,-0.2
45.431884,-0.2
45.441925,-0.2
45.451969,-0.2
45.462005,-0.2
45.472023,-0.2
45.482093,-0.2
45.492141,-0.2
45.502197,-0.2
45.512248,-0.2
45.522293,-0.2
45.532363,-0.2
45.542411,-0.2
45.552452,-0.2
45.56248,-0.2
45.572502,-0.2
45.582561,-0.2
45.592681,-0.2
45.602767,-0.2
45.612838,-0.2
45.622867,-0.2
45.63293,-0.2
45.642986,-0.2
45.653079,-0.2
45.663177,-0.2
45.673259,-0.2
45.683372,-0.2
45.693454,-0.2
45.703483,-0.2
45.713508,-0.2
45.723533,-0.2
45.733589,-0.2
45.743633,-0.2
45.753673,-0.2
45.763702,-0.2
45.773727,-0.2
45.783782,-0.2
45.793819,-0.2
45.803852,-0.2
45.813873,-0.2
45.823894,-0.2
45.833984,-0.2
45.844055,-0.2
45.854114,-0.2
45.8642,-0.2
45.874256,-0.2
45.884323,-0.2
45.894371,-0.2
45.904403,-0.2
45.914436,-0.2
45.924446,-0.2
45.934509,-0.2
45.94453,-0.2
45.954555,-0.2
45.964595,-0.2
45.974651,-0.2
45.984752,-0.2
45.99485,-0.2
46.004932,-0.2
46.015003,-0.2
46.025093,-0.2
46.035175,-0.2
46.045276,-0.2
46.055381,-0.2
46.06549,-0.2
46.075595,-0.2
46.085548,-0.1967
46.095497,-0.2301
46.105419,-0.2264
46.115364,-0.2114
46.125305,-0.2113
46.135257,-0.2106
46.145195,-0.2522
46.155147,-0.2734
46.165096,-0.308
46.174999,-0.3448
46.18494,-0.3396
46.194866,-0.2769
46.204799,-0.2418
46.214729,-0.2181
46.224655,-0.2304
46.234558,-0.231
46.244503,-0.2316
46.254451,-0.2511
46.2644,-0.1877
46.274353,-0.114
46.28429,-0.1159
46.294258,-0.1006
46.30418,-0.0621
46.314098,-0.0736
46.322456,-0.0824
46.332389,-0.1254
46.342369,-0.1575
46.352321,-0.1696
46.3623,-0.1824
46.372222,-0.2775
46.382171,-1.0
46.392116,-1.0
46.402004,-1.0
46.411891,-0.9026
46.420238,-0.6717
46.430145,-0.5234
46.440067,-0.4909
46.449993,-0.6453
46.459888,-0.407
46.469932,0.1782
46.480003,0.4729
46.490123,0.5308
46.500228,0.4587
46.510299,0.3726
46.520397,0.1962
46.53049,0.1331
46.540592,0.217
46.550704,0.1667
46.560798,0.1098
46.570697,-0.3602
46.580589,-0.7336
46.590499,-1.0
46.600429,-1.0
46.610332,-0.9579
46.620246,-0.7261
46.62862,-0.569
46.638515,-0.6045
46.648448,-0.663
46.658336,-0.5445
46.668266,-0.1561
46.67839,0.2945
46.688465,0.3723
46.698627,0.322
46.708724,0.1791
46.718837,0.0243
46.72874,-0.017
46.738838,0.047
46.748954,0.006
46.758865,-0.1008
46.768791,-0.1954
46.77872,-0.5605
46.788616,-0.9024
46.798549,-1.0
46.808464,-1.0
46.816795,-1.0
46.826694,-1.0
46.836574,-1.0
46.84645,-1.0
46.856353,-1.0
46.866237,-0.7586
46.874591,-0.173
46.884716,0.4521
46.894809,0.5954
46.905094,0.57
46.915172,0.3836
46.925281,0.1167
46.935379,0.1328
46.945468,0.2315
46.955596,0.3452
46.965686,0.3513
46.975788,0.2715
46.985805,-0.3622
46.995712,-0.5854
47.005653,-0.6834
47.015563,-0.6084
47.025444,-0.5783
47.035331,-0.6051
47.045211,-0.6085
47.055122,-0.5885
47.065036,-0.4118
47.074951,-0.2196
47.084877,-0.1137
47.094959,0.1272
47.105052,0.2818
47.115169,0.2192
47.125251,0.1524
47.135349,0.069
47.145423,-0.02
47.155372,-0.013
47.16529,-0.0429
47.175216,-0.0996
47.185142,-0.0737
47.19506,-0.0412
47.203441,-0.2212
47.213352,-1.0
47.223228,-1.0
47.233089,-1.0
47.242973,-1.0
47.252861,-1.0
47.262779,-0.7712
47.271148,-0.5033
47.28104,-0.4028
47.290912,-0.4161
47.300811,-0.4071
47.310733,-0.0699
47.320816,0.2695
47.330928,0.4493
47.341228,0.4622
47.351306,0.4707
47.361408,0.3883
47.371486,0.2332
47.381496,-0.1852
47.39141,-0.2543
47.401325,-0.1834
47.41127,-0.1074
47.421203,-0.0822
47.431137,-0.3258
47.441059,-1.0
47.450927,-1.0
47.459247,-1.0
47.469142,-1.0
47.479034,-1.0
47.488918,-0.2416
47.498832,-0.2722
47.510364,0.02
47.520458,0.2262
47.530548,0.5233
47.54063,0.7006
47.55075,0.7394
47.560848,0.6983
47.570968,0.5762
47.581073,0.1288
47.590972,-0.2392
47.600879,-0.1996
47.610786,-0.0676
47.620742,-0.0597
47.630664,-0.4051
47.640567,-1.0
47.650478,-1.0
47.660381,-0.9324
47.670322,-0.6648
47.68024,-0.6133
47.690139,-0.5713
47.700054,-0.5252
47.709945,-0.5569
47.71989,-0.0823
47.729972,0.3332
47.740066,0.4818
47.750125,0.5158
47.760898,0.4393
47.770984,-0.0832
47.780891,-0.3058
47.790779,-0.2861
47.800689,-0.2747
47.810588,-0.1676
47.820518,-0.1038
47.830444,-0.1984
47.840351,-0.3433
47.850246,-0.7195
47.86016,-0.9372
47.868492,-1.0
47.878395,-1.0
47.888282,-0.8508
47.898185,-0.662
47.908092,-0.5917
47.91798,-0.6973
47.927932,-0.1279
47.936454,0.305
47.946578,0.3993
47.95668,0.3575
47.966758,0.3319
47.976875,0.1946
47.986923,-0.2134
47.996822,-0.2546
48.006744,-0.1752
48.016651,-0.2678
48.02658,-0.1798
48.036502,-0.1308
48.046417,-0.2671
48.056316,-0.671
48.066226,-1.0
48.076133,-1.0
48.086025,-0.8642
48.094375,-0.6586
48.104278,-0.576
48.114196,-0.4049
48.124122,-0.2585
48.134063,-0.4258
48.144042,0.0781
48.154121,0.4754
48.164913,0.5143
48.174995,0.4436
48.185108,0.332
48.195133,-0.1658
48.205066,-0.2901
48.214958,-0.261
48.22488,-0.1974
48.234828,-0.0767
48.24475,-0.1069
48.254676,-0.2141
48.264602,-0.7889
48.274501,-1.0
48.284408,-1.0
48.294277,-1.0
48.3026,-1.0
48.31248,-0.7845
48.32238,-0.7381
48.332279,-0.3226
48.342239,-0.1235
48.352142,-0.2091
48.360561,0.0792
48.37062,0.3132
48.380752,0.2504
48.390785,-0.0783
48.400836,0.2026
48.410911,0.4584
48.421039,0.4842
48.431133,0.4164
48.441265,0.2963
48.451381,0.3311
48.461448,-0.0588
48.47137,-0.4059
48.481277,-0.4371
48.491245,-0.5313
48.501171,-0.501
48.511066,-0.5459
48.520965,-0.6821
48.530868,-0.6576
48.540813,-0.4213
48.550708,-0.4562
48.560596,-0.7798
48.570487,-0.842
48.578815,-0.4624
48.588817,0.0742
48.598884,0.2737
48.609676,0.3089
48.619758,0.2763
48.629852,0.284
48.639965,0.142
48.649898,-0.284
48.659786,-0.3238
48.669704,-0.1478
48.67966,0.0095
48.68962,-0.0396
48.699531,-0.3592
48.709415,-0.9611
48.719303,-1.0
48.729175,-0.8525
48.739063,-0.533
48.74908,0.005
48.759151,0.1826
48.76929,0.1779
48.779342,-0.0948
48.789234,-0.4191
48.799171,-0.3806
48.809154,0.0304
48.820827,0.2546
48.830902,0.3053
48.841026,0.3147
48.851177,0.0451
48.861091,-0.3576
48.87099,-0.5075
48.880867,-0.2404
48.890846,0.1565
48.901168,0.0896
48.911128,-0.235
48.921035,-0.5645
48.930923,-0.7265
48.940807,-0.9018
48.950714,-0.709
48.96062,-0.382
48.970527,-0.1399
48.980453,-0.066
48.990364,-0.1463
49.000301,-0.1768
49.010215,-0.0408
49.020275,0.0393
49.030239,-0.1056
49.040252,0.0647
49.050403,0.0467
49.06034,-0.0874
49.070236,-0.0322
49.080154,-0.0879
49.090202,0.3243
49.100288,0.4484
49.11042,0.3801
49.120506,0.2801
49.130508,-0.1894
49.140407,-0.3789
49.150341,-0.4766
49.160247,-0.5875
49.168598,-0.6335
49.178501,-0.4587
49.1884,-0.2648
49.198303,-0.2523
49.208244,-0.2563
49.218154,-0.3403
49.228084,-0.3125
49.236434,-0.2388
49.24636,-0.0406
49.256507,0.0477
49.26646,-0.0542
49.276401,-0.029
49.286312,-0.025
49.296222,-0.036
49.306159,-0.0435
49.316074,-0.0361
49.326,-0.0169
49.33451,0.033
49.34452,-0.0647
49.354442,-0.1829
49.364391,-0.1867
49.37432,-0.5747
49.384239,-0.728
49.394153,-0.6867
49.404079,-0.6616
49.414001,-0.7798
49.423904,-0.3663
49.433811,-0.2017
49.442169,-0.3157
49.452087,-0.4743
49.462017,-0.34
49.471935,-0.0915
49.482025,0.0673
49.492076,-0.0253
49.501979,-0.1045
49.511924,-0.0629
49.521987,0.1376
49.532279,0.089
49.54224,-0.0939
49.552154,-0.1449
49.562099,-0.2846
49.572017,-0.0726
49.582035,-0.1482
49.591934,-1.0
49.600257,-1.0
49.610134,-0.982
49.620056,-0.3905
49.62994,-0.703
49.639965,-0.6613
49.65002,-0.5026
49.660053,-0.3986
49.67012,-0.3303
49.680206,-0.2855
49.690296,-0.2561
49.700389,-0.2368
49.710475,-0.2241
49.720596,-0.2158
49.730701,-0.2104
49.740829,-0.2068
49.750881,-0.2045
49.76094,-0.2029
49.771007,-0.2019
49.781059,-0.2013
49.791114,-0.2008
49.801143,-0.2005
49.811195,-0.2004
49.821281,-0.2002
49.831336,-0.2002
49.841411,-0.2001
49.851478,-0.2001
49.861564,-0.2
49.871662,-0.2
49.881721,-0.2
49.891796,-0.2
49.901878,-0.2
49.911975,-0.2
49.922103,-0.2
49.932201,-0.2
49.942279,-0.2
49.952377,-0.2
49.962471,-0.2
49.972606,-0.2
49.982719,-0.2
49.992832,-0.2
50.00283,-0.2321
50.012748,-0.2292
50.022705,-0.2315
50.032608,-0.2465
50.042541,-0.2578
50.052474,-0.2518
50.062393,-0.2389
50.072349,-0.222
50.082294,-0.2004
50.092212,-0.1428
50.102138,-0.0642
50.11206,-0.0139
50.122016,-0.0337
50.131946,-0.0849
50.141902,-0.1755
50.151832,-0.3379
50.161769,-0.5182
50.171733,-0.4682
50.180103,-0.3815
50.190006,-0.2946
50.199916,-0.262
50.209846,-0.2703
50.21981,-0.2905
50.229747,-0.2893
50.239696,-0.2785
50.249641,-0.2608
50.259563,-0.2345
50.26794,-0.2428
50.277889,-0.2657
50.287841,-0.2639
50.29776,-0.2593
50.307693,-0.229
50.317626,-0.2036
50.327598,-0.19
50.337535,-0.2239
50.34748,-0.2773
50.355834,-0.2952
50.365764,-0.3508
50.375701,-0.3333
50.385623,-0.2822
50.395557,-0.1935
50.405532,-0.1923
50.415462,-0.2211
50.425415,-0.2015
50.435363,-0.1776
50.445304,-0.1342
50.453689,-0.1225
50.463634,-0.1574
50.473587,-0.1562
50.483592,-0.1901
50.49353,-0.1283
50.503475,-0.1339
50.513416,-0.0894
50.523464,0.0348
50.533615,0.0961
50.543682,-0.0529
50.553619,-0.1245
50.563571,-0.0777
50.573596,0.0852
50.583717,0.2028
50.593872,0.1345
50.603916,-0.0434
50.613849,-0.1198
50.623783,-0.2736
50.633735,-0.2963
50.643672,-0.2434
50.653598,-0.2785
50.661964,-0.1774
50.671905,-0.179
50.681835,-0.3665
50.691768,-0.5523
50.70169,-0.4307
50.711654,0.0587
50.721736,0.3241
50.731903,0.3394
50.742019,0.218
50.752136,0.1061
50.762123,-0.1444
50.772075,-0.2184
50.782112,0.1577
50.792255,0.1941
50.802352,0.125
50.812362,-0.1006
50.822265,-0.3677
50.832183,-0.4179
50.842079,-0.4918
50.851966,-0.6138
50.861869,-0.6708
50.870223,-0.746
50.880134,-0.8611
50.890071,-0.6812
50.899978,-0.1196
50.910072,0.1499
50.920356,0.0135
50.930259,-0.1441
50.940181,-0.2975
50.95008,-0.4096
50.959953,-0.5606
50.969852,-0.488
50.978187,-0.2202
50.988132,-0.2576
50.998039,-0.2978
51.007942,-0.3254
51.017845,-0.3505
51.027729,-0.5612
51.037662,-0.556
51.046001,-0.4912
51.055892,-0.3837
51.065803,-0.2492
51.075702,-0.1583
51.085708,0.0674
51.095783,0.2573
51.105922,0.179
51.115962,-0.0275
51.125892,-0.1513
51.135841,-0.3774
51.145744,-0.6479
51.155643,-0.5687
51.165596,-0.1823
51.174076,0.1879
51.184219,0.2247
51.194381,0.0319
51.204277,-0.4709
51.214168,-0.6313
51.224075,-0.5195
51.233993,-0.4367
51.243911,-0.2825
51.25381,-0.2257
51.263698,-0.1883
51.273612,-0.153
51.283519,-0.2387
51.291919,-0.2541
51.301853,-0.0372
51.311958,0.0275
51.321876,-0.069
51.331783,-0.0479
51.341728,-0.0092
51.351665,-0.1202
51.361576,-0.1881
51.371505,-0.0951
51.381446,-0.0021
51.389972,0.1569
51.400283,0.0913
51.410289,-0.1338
51.420188,-0.6105
51.430061,-1.0
51.439956,-1.0
51.449851,-0.6414
51.459785,-0.2652
51.469722,-0.0549
51.47966,-0.1623
51.489559,-0.537
51.499511,-0.384
51.509586,0.3681
51.519683,0.5332
51.529846,0.4151
51.539951,0.102
51.549888,-0.2969
51.559787,-0.3847
51.56969,-0.3396
51.578056,-0.1449
51.588134,0.0908
51.598251,-0.0517
51.608169,-0.3116
51.618072,-0.5868
51.627967,-0.817
51.637874,-0.8047
51.6478,-0.6803
51.657699,-0.5078
51.66761,-0.3761
51.675971,-0.3314
51.685924,-0.1179
51.695865,-0.0269
51.70581,-0.1006
51.715816,0.0933
51.7261,0.122
51.736034,-0.1611
51.745967,-0.0597
51.756103,0.2972
51.766254,0.3049
51.776321,-0.02
51.786216,-0.2412
51.796146,-0.2035
51.806091,-0.1483
51.816013,-0.2629
51.825935,-0.2865
51.835853,-0.408
51.845771,-0.432
51.854145,-0.4785
51.864055,-0.6331
51.873973,-0.6399
51.883884,-0.6336
51.893783,-0.6096
51.903732,-0.4263
51.913654,-0.1408
51.923675,0.0912
51.93375,0.2678
51.943878,0.2789
51.953987,0.1474
51.964096,0.2641
51.974201,0.2798
51.984249,-0.0401
51.994129,-0.5995
52.004066,-0.613
52.013977,-0.1319
52.022491,0.1889
52.032768,0.204
52.042808,-0.0469
52.052688,-0.3514
52.062599,-0.4686
52.072494,-0.3913
52.082405,-0.3192
52.092296,-0.3126
52.102195,-0.3592
52.112125,-0.3535
52.12207,-0.2134
52.131992,-0.1675
52.141925,-0.0683
52.150348,0.0202
52.160476,0.0351
52.170452,-0.0961
52.180355,-0.2228
52.190284,-0.1046
52.200317,0.0748
52.210487,0.0735
52.220466,-0.1493
52.230392,-0.2066
52.240314,-0.2781
52.250225,-0.4225
52.260162,-0.517
52.270065,-0.6685
52.279968,-0.7606
52.288311,-0.7413
52.29824,-0.8072
52.308132,-0.7262
52.318073,-0.5044
52.327991,-0.0081
52.338077,0.205
52.348327,0.1829
52.358371,-0.0676
52.36827,-0.8012
52.378143,-0.9554
52.388057,-0.5886
52.39801,0.0193
52.406494,0.2133
52.416606,0.2781
52.426731,0.2511
52.43684,0.2435
52.446949,0.2894
52.457046,0.1964
52.467174,0.0202
52.477188,0.0241
52.487205,-0.1233
52.497116,-0.6161
52.507045,-0.8729
52.516963,-0.9374
52.526866,-0.949
52.536785,-0.4008
52.546756,0.0405
52.556915,0.0108
52.566829,-0.3836
52.576725,-0.9784
52.586654,-0.5089
52.596561,-0.277
52.606464,-0.2944
52.616397,-0.2172
52.626468,0.434
52.636531,0.5844
52.647296,0.5354
52.657375,0.4824
52.667503,0.0752
52.677394,-0.3712
52.687324,-0.2734
52.697265,-0.1644
52.707202,-0.2889
52.717124,-0.4462
52.727035,-0.4894
52.736911,-0.6503
52.746807,-0.6352
52.755168,-0.4191
52.765098,-0.1803
52.775058,-0.0756
52.784976,-0.0694
52.794902,-0.1136
52.804889,0.0345
52.815013,0.0878
52.825096,-0.0393
52.835014,-0.1597
52.84494,-0.1265
52.854907,0.0053
52.864864,-0.1176
52.874835,-0.075
52.883335,0.1772
52.893474,0.132
52.903461,-0.4132
52.913372,-0.6312
52.92332,-0.433
52.9333,0.0017
52.944091,0.1599
52.954082,-0.1777
52.964004,-0.4717
52.973941,-0.427
52.983829,-0.6387
52.993709,-0.7338
53.003623,-0.3651
53.013549,-0.1524
53.023612,0.0296
53.033679,-0.0709
53.043556,-0.6873
53.053443,-0.879
53.06335,-0.3382
53.073348,0.0275
53.083442,0.1908
53.093582,0.1937
53.103698,0.1731
53.113807,0.1679
53.12395,0.0637
53.133926,-0.1723
53.143875,-0.1491
53.153816,-0.1061
53.163841,0.1033
53.173957,0.2021
53.18404,0.3484
53.194171,0.1659
53.204139,-0.4898
53.214038,-0.7711
53.223968,-0.7467
53.23389,-0.4916
53.243785,-0.3685
53.253692,-0.3722
53.26205,-0.3967
53.271953,-0.4176
53.281917,-0.4407
53.291816,-0.4158
53.301719,-0.5783
53.311614,-0.3526
53.321647,0.1375
53.33179,0.2778
53.342086,0.1599
53.3521,-0.0992
53.362064,0.0063
53.372196,0.1076
53.382312,-0.0309
53.392227,-0.0678
53.402153,-0.0335
53.412078,-0.2476
53.42197,-0.8843
53.431873,-1.0
53.440212,-0.9181
53.450103,-0.9928
53.45998,-0.9892
53.469875,-0.2144
53.479824,-0.1099
53.489753,-0.1506
53.499725,0.0973
53.508209,0.2712
53.518329,0.1146
53.52824,-0.3413
53.538185,-0.2467
53.548091,-0.6664
53.558067,0.0561
53.56821,0.2671
53.578231,-0.0899
53.588237,0.0577
53.59832,0.4043
53.608455,0.3048
53.618545,0.115
53.628635,0.1463
53.638759,0.2893
53.64904,0.0793
53.658946,-0.386
53.668857,-0.5089
53.678775,-0.4974
53.688709,-0.6002
53.698593,-0.6627
53.708484,-0.5525
53.718368,-0.6864
53.728263,-0.3246
53.738216,-0.1296
53.748126,-0.2424
53.756511,-0.0656
53.766574,0.0277
53.776512,-0.1227
53.786605,0.3173
53.796745,0.2017
53.806709,-0.2425
53.816638,-0.0193
53.826797,0.0726
53.836784,-0.0458
53.846862,0.0468
53.85696,0.154
53.867019,0.2832
53.877178,0.1464
53.887176,-0.2866
53.897079,-0.4485
53.906974,-0.3892
53.916889,-0.3124
53.926815,-0.2455
53.936759,-0.4579
53.946685,-0.4296
53.9566,-0.2649
53.966499,-0.1775
53.974884,-0.1683
53.984828,-0.1607
53.994773,-0.1498
54.004695,-0.1765
54.014625,-0.0696
54.024688,0.1362
54.03495,0.1554
54.045036,-0.0947
54.054939,-0.3897
54.064849,-0.1645
54.074764,-0.1079
54.084674,-0.0071
54.094715,-0.0466
54.104637,-0.359
54.114547,-1.0
54.12289,-1.0
54.132789,-0.9149
54.14273,-0.6617
54.15266,-0.693
54.16257,-0.5045
54.172477,-0.1955
54.182506,0.052
54.192531,-0.1054
54.202468,-0.2468
54.212383,-0.244
54.220729,-0.6456
54.230648,-0.3547
54.2406,-0.175
54.250511,-0.0329
54.260604,0.3743
54.270687,0.5325
54.280845,0.4475
54.290977,0.1349
54.300956,-0.1395
54.310882,-0.0967
54.320819,-0.2094
54.330726,-0.749
54.340625,-0.975
54.350551,-0.9059
54.35889,-1.0
54.36877,-1.0
54.378669,-1.0
54.388561,-1.0
54.398483,-0.9069
54.408481,0.0001
54.419902,-0.6317
54.429805,-1.0
54.439708,-0.5643
54.449703,0.1816
54.459785,0.561
54.470046,0.3162
54.480144,0.1671
54.490219,0.4748
54.50032,0.552
54.510395,0.5916
54.520477,0.6388
54.530609,0.6426
54.540691,0.599
54.550731,-0.4079
54.560642,-0.358
54.570549,-0.3677
54.580467,-0.3855
54.590358,-0.4477
54.60028,-0.5059
54.610164,-0.601
54.62004,-0.5956
54.62992,-0.5374
54.639823,-0.2457
54.649776,-0.0223
54.659698,-0.0455
54.669628,-0.1249
54.679542,-0.053
54.689605,0.1432
54.69976,0.1501
54.709869,0.0472
54.719917,-0.0031
54.729988,0.0368
54.740066,0.1241
54.750164,0.3123
54.760456,0.2693
54.770542,0.0152
54.780429,-0.2812
54.79034,-0.4423
54.800262,-0.5554
54.810161,-0.5601
54.820064,-0.4407
54.829959,-0.3251
54.838329,-0.2769
54.848258,-0.2255
54.858192,-0.3201
54.868091,-0.3651
54.877998,-0.1825
54.887981,0.0056
54.897956,-0.0796
54.907894,-0.1723
54.917823,-0.213
54.927738,-0.0296
54.936237,0.1563
54.946384,0.1305
54.95647,-0.0539
54.966392,-0.2302
54.976299,-0.1553
54.986225,-0.3734
54.99615,-0.5588
55.006072,-0.4695
55.015972,-0.2905
55.025886,-0.1044
55.035797,-0.007
55.044151,-0.086
55.054088,-0.2029
55.064006,-0.1495
55.073917,-0.2242
55.083896,0.0487
55.093902,-0.048
55.103824,-0.3819
55.113739,-1.0
55.123626,-1.0
55.131973,-0.611
55.142055,0.2685
55.15213,0.3474
55.162254,0.463
55.172527,0.4735
55.182632,0.473
55.192733,0.1531
55.202655,-0.5109
55.212585,-0.7273
55.222511,-0.7619
55.23244,-0.6818
55.242359,-0.4825
55.252292,-0.3581
55.262226,-0.4925
55.27214,-0.401
55.282032,-0.3106
55.291934,-0.309
55.301841,-0.0899
55.310325,0.0782
55.320476,0.0397
55.330577,0.0147
55.340473,-0.0901
55.350448,0.0228
55.360553,0.228
55.370681,0.2621
55.38079,0.1101
55.390739,-0.258
55.400646,-0.4278
55.410572,-0.4715
55.420467,-0.4526
55.43037,-0.4715
55.440246,-0.3902
55.450157,-0.2598
55.460105,-0.1907
55.470005,-0.2112
55.47834,-0.275
55.488235,-0.3804
55.49813,-0.3588
55.508045,-0.2613
55.517978,-0.2909
55.5279,-0.1397
55.537925,0.066
55.548206,0.1064
55.5583,0.0275
55.568424,0.0269
55.578514,0.0896
55.588661,0.0292
55.598674,-0.0281
55.608684,0.0503
55.618816,0.0865
55.628902,0.0437
55.638912,-0.0674
55.648822,-0.2837
55.658744,-0.7175
55.668666,-0.9081
55.678577,-0.8492
55.688499,-0.5735
55.698394,-0.4743
55.70676,-0.4738
55.716682,-0.5331
55.726608,-0.3691
55.736614,0.0036
55.746704,0.2044
55.756855,0.1159
55.766906,-0.0663
55.776828,-0.0505
55.786895,0.118
55.796974,0.2245
55.807052,0.3425
55.817192,0.3544
55.827308,0.114
55.837268,-0.3075
55.847183,-0.4455
55.857105,-0.5938
55.867057,-0.5761
55.876964,-0.4715
55.886871,-0.3361
55.896778,-0.2708
55.906684,-0.2135
55.915031,-0.2143
55.924995,-0.1972
55.934921,-0.1098
55.944854,-0.1067
55.954788,-0.1231
55.964721,-0.1422
55.9747,-0.1397
55.984622,-0.2462
55.994544,-0.3109
56.002902,-0.0438
56.013004,0.0947
56.023185,-0.2321
56.0331,-0.4393
56.043006,-0.6692
56.052909,-0.8608
56.062801,-0.8621
56.072738,-0.5138
56.082653,-0.1016
56.092559,-0.4238
56.102466,-0.8124
56.110816,-0.7549
56.120746,-0.8822
56.130661,-0.8793
56.140583,-0.1521
56.150653,0.2743
56.160758,0.4817
56.170928,0.4759
56.181041,0.5139
56.191154,0.3699
56.201274,0.2924
56.211406,0.0029
56.221446,0.0333
56.231552,0.2466
56.241706,0.2364
56.251728,-0.1879
56.261661,-0.8345
56.271606,-0.9032
56.281524,-0.6922
56.291465,-0.6871
56.301368,-0.6583
56.311275,-0.5933
56.321228,-0.4851
56.331157,-0.7255
56.341087,-0.78
56.350994,-0.5149
56.360912,-0.2414
56.369342,0.0691
56.37947,0.1928
56.389762,0.1696
56.39986,0.09
56.409946,0.1012
56.420051,0.072
56.430156,0.1206
56.440216,-0.1168
56.450122,-0.1414
56.460205,0.2826
56.470268,0.4224
56.480453,0.289
56.490474,-0.2588
56.5004,-0.4283
56.510295,-0.5564
56.520206,-0.5426
56.530155,-0.4535
56.540054,-0.3055
56.549964,-0.3256
56.559886,-0.3742
56.569805,-0.3727
56.579742,-0.3134
56.589687,-0.1368
56.599727,0.107
56.609821,0.2108
56.619949,0.2404
56.630073,0.1659
56.640186,0.016
56.650108,-0.2956
56.660003,-0.4004
56.669883,-0.3158
56.679832,-0.1796
56.689781,-0.0988
56.698143,-0.18
56.70808,-0.4415
56.717994,-0.4939
56.727939,-0.4195
56.73788,-0.4034
56.747802,-0.3122
56.757732,-0.3458
56.767654,-0.3379
56.779159,-0.3467
56.789093,-0.4466
56.798988,-0.4935
56.808895,-0.3694
56.818836,-0.1247
56.828887,0.0414
56.839038,0.084
56.849124,0.1791
56.85942,0.1633
56.869457,-0.0342
56.879394,-0.1179
56.889362,-0.0956
56.899299,-0.1438
56.909278,0.0132
56.919281,-0.1003
56.929203,-0.6896
56.939132,-1.0
56.949024,-1.0
56.958911,-1.0
56.968818,-0.7663
56.978759,-0.2357
56.988712,-0.1648
56.998626,-0.5106
57.008533,-0.7751
57.016868,-1.0
57.026767,-1.0
57.036716,-0.0991
57.046833,0.2792
57.056991,0.1661
57.067115,0.0492
57.077014,-0.1405
57.087062,0.0649
57.09716,0.0963
57.107246,0.3266
57.117343,0.4614
57.127426,0.5892
57.137737,0.6205
57.147811,0.5506
57.157924,0.1113
57.167827,-0.3855
57.177753,-0.6007
57.187683,-0.6341
57.197597,-0.5384
57.207489,-0.4861
57.217388,-0.4129
57.227302,-0.2912
57.237266,-0.2302
57.24718,-0.2899
57.25708,-0.2905
57.266975,-0.182
57.275337,-0.1191
57.285335,0.0212
57.295482,0.0538
57.30545,-0.0814
57.315368,-0.1517
57.325298,-0.1731
57.335239,-0.1305
57.345207,-0.1107
57.355152,-0.1211
57.365139,0.0064
57.375228,0.1281
57.385379,0.0659
57.395374,-0.2148
57.405315,-0.4307
57.415233,-0.442
57.425151,-0.2951
57.433532,-0.2748
57.443496,-0.2973
57.453399,-0.4287
57.463294,-0.4159
57.473232,-0.2924
57.483142,-0.3569
57.493076,-0.393
57.502994,-0.1574
57.511417,0.0297
57.521438,-0.0373
57.531356,-0.1304
57.541286,-0.1462
57.55125,-0.1961
57.561195,-0.1386
57.571144,-0.1161
57.58118,0.1266
57.59127,0.237
57.601562,0.0441
57.611484,-0.1525
57.621398,-0.1711
57.631343,-0.2696
57.641292,-0.3734
57.651256,-0.3939
57.661182,-0.4563
57.671115,-0.4518
57.679489,-0.3713
57.689426,-0.2762
57.699363,-0.313
57.709262,-0.3025
57.719169,-0.2405
57.729095,-0.1184
57.739086,0.0159
57.749202,0.1322
57.7593,0.1887
57.769374,0.2347
57.779529,0.1744
57.78963,0.0816
57.799751,0.0009
57.809638,-0.3308
57.819534,-0.5208
57.82946,-0.6989
57.839363,-0.7717
57.849311,-0.7889
57.857662,-0.6019
57.867576,-0.5202
57.877483,-0.3576
57.887397,-0.3872
57.897296,-0.3727
57.907245,-0.2401
57.917144,-0.1463
57.925563,0.0449
57.935657,0.2989
57.945926,0.3566
57.956031,0.3254
57.966117,0.2045
57.976181,-0.0316
57.986118,-0.169
57.996032,-0.0402
58.006175,0.0084
58.016071,-0.3589
58.025981,-1.0
58.035884,-1.0
58.045768,-1.0
58.055671,-1.0
58.065567,-0.7397
58.075481,-0.3008
58.085388,-0.2216
58.095294,-0.1039
58.103649,-0.0664
58.113574,-0.1189
58.123519,-0.0561
58.133644,0.2436
58.143791,0.2751
58.153903,0.2181
58.164024,0.2165
58.174148,0.0378
58.184074,-0.0716
58.194015,-0.0544
58.204132,0.1933
58.214313,0.2841
58.224449,0.0322
58.234355,-0.4214
58.244289,-0.7914
58.254199,-1.0
58.264118,-0.8697
58.274032,-0.5175
58.283935,-0.4115
58.293876,-0.2765
58.303817,-0.2912
58.313739,-0.6129
58.322109,-0.8149
58.332012,-0.587
58.341926,-0.1982
58.352008,0.2115
58.362121,0.3403
58.372402,0.3163
58.382499,0.313
58.392589,0.1463
58.402557,-0.067
58.412643,0.1366
58.422744,0.2409
58.432868,0.2131
58.442935,-0.0667
58.452861,-0.4484
58.462795,-0.6775
58.472721,-0.7152
58.482635,-0.614
58.492542,-0.4582
58.502471,-0.3955
58.512355,-0.4458
58.522293,-0.7591
58.532203,-0.7983
58.542091,-0.7762
58.550426,-0.7553
58.560314,-0.8987
58.570232,-0.5564
58.580165,-0.0241
58.590251,0.363
58.600322,0.4572
58.61045,0.4037
58.620574,0.345
58.630676,0.0763
58.64059,-0.1349
58.650562,0.0428
58.660854,0.0685
58.670829,-0.2125
58.680725,-0.6966
58.690612,-0.9555
58.700511,-0.5806
58.710437,-0.1271
58.72055,0.2315
58.730693,0.2338
58.740703,-0.16
58.750591,-0.7085
58.760471,-1.0
58.768787,-0.8711
58.778739,-0.3147
58.788806,0.2732
58.798946,0.2707
58.809055,0.2016
58.819149,0.0419
58.829288,0.0357
58.839431,0.1168
58.849452,-0.1777
58.859359,-0.3735
58.869388,0.1764
58.879493,0.3734
58.889648,0.1664
58.899623,-0.311
58.90953,-0.4112
58.919445,-0.559
58.929386,-0.6139
58.939285,-0.5191
58.949207,-0.3402
58.959133,-0.1328
58.969081,-0.1034
58.979011,-0.3507
58.988906,-0.5142
58.998817,-0.5834
59.007164,-0.6533
59.017074,-0.5306
59.027057,0.0097
59.037124,0.3088
59.047405,0.2497
59.057479,0.0444
59.067409,-0.1979
59.077304,-0.3904
59.087188,-0.3919
59.097103,-0.1753
59.107036,-0.0813
59.116954,-0.1674
59.126888,-0.7193
59.135223,-1.0
59.145099,-1.0
59.154983,-0.7856
59.164901,-0.3954
59.1748,-0.1918
59.184844,0.1432
59.194938,0.3847
59.205078,0.2094
59.214946,-0.9447
59.224826,-1.0
59.233196,-0.7847
59.243099,-0.3978
59.253116,0.3076
59.26321,0.544
59.273365,0.3994
59.283489,0.2482
59.293582,0.2799
59.303676,0.0464
59.313591,-0.1507
59.323665,0.1543
59.33398,0.0751
59.343898,-0.5788
59.353778,-1.0
59.363655,-1.0
59.373542,-0.696
59.383483,-0.3653
59.393409,-0.1565
59.403324,-0.2789
59.413227,-0.5686
59.423149,-0.5195
59.433082,-0.6374
59.441432,-0.6573
59.451351,-0.7078
59.461273,-0.3884
59.471248,0.1192
59.48133,0.3663
59.491508,0.1023
59.501598,0.3617
59.511695,0.4333
59.521789,0.0197
59.531669,-0.3484
59.541622,-0.205
59.551628,0.1689
59.561748,0.2453
59.571857,0.0658
59.581779,-0.3296
59.591716,-0.4073
59.601612,-0.5263
59.611511,-0.5012
59.621421,-0.3924
59.631332,-0.437
59.639713,-0.3571
59.649623,-0.1862
59.659553,-0.2472
59.669456,-0.4621
59.679382,-0.3969
59.689334,-0.0325
59.699462,0.1399
59.709739,0.1586
59.719829,0.079
59.729869,-0.017
59.739803,-0.0443
59.749725,-0.0537
59.759643,-0.1291
59.769561,-0.1991
59.779487,-0.6277
59.78786,-0.6662
59.797805,-0.3929
59.807716,-0.497
59.817623,-0.647
59.827552,-0.4754
59.837467,-0.1591
59.8474,-0.5098
59.857311,-0.4242
59.865695,-0.1502
59.875621,-0.1902
59.885517,-0.4304
59.895442,-0.6339
59.905479,0.3011
59.915546,0.5861
59.925697,0.4301
59.935783,0.5232
59.945884,0.6243
59.955978,0.3185
59.966007,-0.0717
59.975936,-0.2212
59.985839,-0.5198
59.99578,-0.4417
60.005687,-0.4565
60.015575,-0.5507
60.025497,-0.6221
60.033851,-1.0
60.043727,-0.8728
60.053653,-0.5791
60.063537,-0.8239
60.073429,-0.7967
60.083335,-0.1735
60.093379,0.0843
60.103664,0.0387
60.11375,0.0695
60.123847,0.1741
60.133945,0.2489
60.144096,0.1378
60.154075,-0.1584
60.164119,0.2431
60.174247,0.2392
60.18436,0.2046
60.194438,0.3607
60.204559,0.0457
60.214466,-0.3549
60.22438,-0.4829
60.234275,-0.5001
60.244171,-0.5736
60.254104,-0.5395
60.264015,-0.3419
60.273937,-0.2874
60.282299,-0.3141
60.292205,-0.2204
60.302154,-0.1531
60.312107,-0.1318
60.322044,-0.2289
60.331932,-0.255
60.341964,0.1778
60.352073,0.4252
60.362216,0.476
60.372303,0.367
60.382389,0.5654
60.392482,0.5431
60.402519,-0.2674
60.412445,-0.2487
60.422378,-0.2782
60.432296,-0.2215
60.442226,-0.1426
60.452186,-0.3725
60.460559,-0.5797
60.470493,-0.5893
60.480415,-0.489
60.490314,-0.389
60.500213,-0.416
60.510116,-0.4794
60.520023,-0.4638
60.529914,-0.2887
60.538295,-0.0848
60.54824,-0.037
60.558361,0.0081
60.568279,-0.0436
60.578346,0.0852
60.588436,0.1558
60.598712,0.2133
60.608802,-0.0013
60.618698,-0.1708
60.628627,-0.2126
60.638553,-0.3889
60.64846,-0.468
60.658393,-0.5058
60.668315,-0.5876
60.678226,-0.6906
60.688125,-0.6415
60.696491,-0.3788
60.706439,-0.0399
60.716403,-0.1424
60.726314,-0.3539
60.736202,-1.0
60.746086,-0.8546
60.756,-0.1823
60.766071,0.3211
60.776222,0.4549
60.786327,0.2917
60.79644,0.3103
60.806526,0.5375
60.816661,0.4757
60.826766,0.1705
60.836887,0.0782
60.847034,0.0385
60.856922,-0.4492
60.86687,-0.3546
60.876838,0.0797
60.887012,-0.1884
60.896915,-0.6161
60.908382,-0.6624
60.918323,-0.5763
60.928245,-0.8275
60.938133,-1.0
60.948013,-1.0
60.957885,-0.7865
60.967823,-0.4423
60.977825,0.0584
60.987907,0.3508
60.998043,0.3283
61.008148,0.3463
61.018245,0.5275
61.028316,0.5242
61.038436,0.2401
61.048534,0.1523
61.058628,0.2029
61.068737,0.1501
61.078758,-0.1111
61.088672,-0.6169
61.098571,-1.0
61.108459,-1.0
61.118385,-1.0
61.128295,-0.7076
61.138202,-0.5458
61.148128,-0.3877
61.158039,-0.4779
61.167984,-0.609
61.177902,-0.186
61.187934,0.0255
61.197887,-0.1365
61.207839,-0.0354
61.217994,0.0402
61.228073,-0.0218
61.237987,-0.0604
61.248058,0.0766
61.258155,0.1763
61.26828,0.2856
61.27856,0.2428
61.288665,0.0037
61.298561,-0.4727
61.308483,-0.5707
61.318428,-0.5864
61.328357,-0.5143
61.338287,-0.5245
61.348213,-0.4123
61.356571,-0.3649
61.366512,-0.3538
61.376419,-0.3319
61.386356,-0.2903
61.396297,-0.2025
61.406272,0.0011
61.416397,0.102
61.426494,-0.0035
61.436565,0.0589
61.446643,0.1704
61.456775,0.1055
61.466762,-0.0983
61.476718,-0.174
61.486644,-0.4495
61.496551,-0.5172
61.50645,-0.3825
61.516357,-0.4132
61.524734,-0.4635
61.534645,-0.3957
61.544559,-0.4423
61.554477,-0.5556
61.564395,-0.4179
61.574344,-0.2442
61.584262,-0.18
61.594158,-0.4077
61.6025,-0.3983
61.612392,-0.1678
61.622348,-0.0976
61.632274,-0.0408
61.642196,-0.213
61.652088,-0.8511
61.661983,-0.4868
61.670406,0.1322
61.680522,0.4737
61.690795,0.3374
61.700885,0.0914
61.710998,0.0114
61.720905,-0.4439
61.730819,-0.6282
61.740722,-0.5332
61.75064,-0.1653
61.760562,-0.1448
61.770648,0.2403
61.780815,0.1309
61.790832,-0.2992
61.800735,-0.8647
61.810611,-1.0
61.82048,-1.0
61.830387,-0.7291
61.840404,0.3288
61.850532,0.4939
61.860626,0.2827
61.870651,-0.0573
61.880737,0.2233
61.890823,0.4604
61.900943,0.537
61.910999,0.4298
61.9211,0.2562
61.931228,0.1298
61.941303,-0.0361
61.951225,-0.2353
61.961143,-0.5726
61.971065,-1.0
61.980987,-1.0
61.990882,-0.7829
62.000797,-0.7016
62.009128,-0.7643
62.019016,-0.7263
62.028949,-0.5093
62.038833,-0.5086
62.048728,-0.6594
62.058639,-0.2735
62.068687,0.1878
62.078804,0.34
62.089572,0.2903
62.099647,0.2533
62.109729,0.2365
62.119808,0.1947
62.129947,0.0233
62.140052,0.1521
62.150177,0.2168
62.160205,-0.1985
62.170101,-0.7882
62.180019,-0.83
62.18991,-0.677
62.199798,-0.6351
62.209697,-0.8126
62.219585,-0.7003
62.229496,-0.6064
62.23941,-0.3735
62.24932,-0.3266
62.257644,-0.4619
62.267555,-0.5097
62.277439,-0.7811
62.287391,-0.2
62.297477,0.362
62.30759,0.3555
62.317672,0.2863
62.327766,0.2894
62.33789,0.2184
62.347995,0.0123
62.358058,0.0103
62.368133,0.3108
62.378208,0.4268
62.388511,0.2883
62.398536,-0.3089
62.408439,-0.5664
62.418315,-0.6702
62.428215,-0.6031
62.43814,-0.442
62.448055,-0.2037
62.457984,-0.2009
62.467861,-0.2808
62.477787,-0.1369
62.487743,-0.1522
62.496116,-0.2243
62.506011,-0.9544
62.515899,-0.7056
62.525871,0.2715
62.535987,0.6067
62.546112,0.6136
62.556228,0.6041
62.566326,0.5189
62.576427,0.4224
62.586555,0.3268
62.59658,-0.2523
62.606498,-0.2632
62.61642,-0.0476
62.626346,-0.2564
62.636295,-0.7174
62.646228,-0.7473
62.65615,-0.8988
62.666057,-0.8845
62.675956,-0.6073
62.68431,-0.6872
62.694236,-0.7933
62.704151,-0.3728
62.714088,-0.0344
62.724006,-0.1488
62.73397,0.063
62.744087,0.4107
62.754367,0.3927
62.764446,0.4621
62.774536,0.5384
62.784622,0.4423
62.794761,0.2208
62.80484,-0.0212
62.814762,-0.0237
62.824703,-0.3879
62.834594,-0.9597
62.844535,-0.8163
62.854469,-0.7668
62.864364,-1.0
62.874256,-1.0
62.882587,-1.0
62.892486,-1.0
62.902374,-0.8383
62.912281,-0.8702
62.92218,-0.9518
62.932079,-0.238
62.942123,0.3541
62.952293,0.3922
62.962406,0.1252
62.972515,0.2098
62.982654,0.393
62.992717,-0.1158
63.002647,-0.4447
63.012531,-0.3864
63.022453,-0.2022
63.032482,0.1184
63.042762,0.0769
63.05268,-0.3143
63.062576,-0.6541
63.072483,-0.8735
63.080833,-0.7585
63.090732,-0.5755
63.100654,-0.3048
63.110557,-0.3408
63.120483,-0.0956
63.130508,0.1094
63.140586,0.3155
63.150779,0.3248
63.160907,0.2604
63.171001,0.3124
63.181095,0.3563
63.191211,0.1041
63.201168,-0.0352
63.21128,0.2362
63.22142,0.2687
63.231544,0.0445
63.241619,0.3986
63.251785,0.3725
63.261859,-0.1321
63.271774,-0.8756
63.281677,-1.0
63.291584,-0.7792
63.301528,-0.408
63.311439,-0.3018
63.321372,-0.1758
63.331321,-0.1102
63.341236,-0.309
63.351158,-0.8406
63.359508,-0.8056
63.369411,-0.2174
63.379447,0.0732
63.389545,0.2963
63.39962,0.3768
63.409908,0.3812
63.419986,0.3516
63.430088,0.1365
63.44017,0.1135
63.450267,0.0967
63.46038,0.1629
63.470455,0.252
63.480464,-0.4255
63.490375,-0.7138
63.500297,-0.5817
63.510231,-0.4031
63.520149,-0.6129
63.530052,-1.0
63.539932,-1.0
63.549823,-0.6556
63.559791,-0.2124
63.569709,-0.1642
63.579616,-0.0722
63.588073,0.0586
63.598209,0.1476
63.608249,-0.1159
63.618164,-0.2116
63.628173,0.0253
63.638263,0.1249
63.648361,0.3246
63.658515,0.3915
63.668628,0.349
63.678733,0.2499
63.688793,-0.0444
63.698699,-0.5837
63.708637,-0.7322
63.718544,-0.6892
63.728473,-0.4496
63.738376,-0.3995
63.748287,-0.323
63.758216,-0.2076
63.768142,-0.2942
63.77806,-0.4578
63.787948,-0.39
63.797847,-0.2445
63.806221,-0.1241
63.816284,0.0763
63.826576,0.1564
63.836582,-0.093
63.8465,-0.2039
63.856403,-0.0979
63.866447,0.0298
63.876457,-0.0522
63.886371,-0.0522
63.896465,0.1573
63.906604,0.1165
63.916645,-0.0793
63.92657,-0.2701
63.936477,-0.4854
63.946399,-0.504
63.956306,-0.4453
63.966232,-0.5027
63.976139,-0.4288
63.984504,-0.4296
63.994403,-0.3608
64.004318,-0.2824
64.014213,-0.3444
64.024147,-0.2164
64.034072,-0.0819
64.044097,0.0282
64.054145,-0.0061
64.064071,-0.1228
64.074066,0.0405
64.082534,0.1097
64.092674,0.0851
64.102775,0.0822
64.112998,-0.0341
64.122924,-0.3419
64.132843,-0.3083
64.142761,-0.2973
64.152702,-0.5058
64.162597,-0.5058
64.172538,-0.5629
64.182464,-0.5509
64.192367,-0.4823
64.20227,-0.4992
64.212173,-0.402
64.222091,-0.2722
64.230476,-0.2429
64.240386,-0.2403
64.250305,-0.0954
64.260223,-0.1755
64.270195,0.064
64.280303,0.266
64.290428,0.2044
64.300529,0.2003
64.310592,0.1027
64.320617,-0.1181
64.330558,-0.2793
64.340454,-0.2719
64.350387,-0.1733
64.360313,-0.2891
64.370216,-0.6907
64.378562,-0.8119
64.388488,-0.6981
64.398399,-0.5951
64.408302,-0.5162
64.418205,-0.4434
64.428123,-0.4028
64.438072,-0.3208
64.447982,-0.2311
64.456359,-0.1458
64.466384,0.1003
64.47647,0.2111
64.486587,0.2992
64.496871,0.2506
64.506973,0.0652
64.517051,0.1465
64.527191,0.1812
64.537315,0.0917
64.547424,0.1018
64.557556,0.1052
64.567512,-0.1919
64.577423,-0.2885
64.587356,-0.6465
64.597282,-0.7051
64.6072,-0.4583
64.617111,-0.5065
64.627029,-0.6342
64.636962,-0.5547
64.646873,-0.4847
64.656791,-0.5617
64.666709,-0.4904
64.67662,-0.131
64.686676,0.0125
64.696586,-0.2683
64.706565,0.0731
64.715049,0.386
64.725181,0.2874
64.735321,0.3171
64.745422,0.3256
64.755531,0.1454
64.765632,0.1767
64.775726,0.3015
64.785858,0.0805
64.795829,-0.2355
64.80574,-0.7184
64.81565,-0.8477
64.825561,-0.7608
64.835472,-0.5449
64.845413,-0.4169
64.855346,-0.461
64.865242,-0.4054
64.87516,-0.5638
64.885086,-0.7921
64.895019,-0.6849
64.904922,-0.5419
64.914825,-0.4316
64.923202,-0.1942
64.933265,0.2527
64.943397,0.4416
64.953697,0.4458
64.963783,0.3747
64.973869,0.2899
64.983947,0.3057
64.994049,0.2137
65.004066,-0.1283
65.013977,-0.4852
65.023872,-0.549
65.033775,-0.5072
65.043701,-0.4742
65.053596,-0.4379
65.063499,-0.4723
65.073387,-0.3803
65.083274,-0.3136
65.093208,-0.3925
65.103118,-0.1602
65.111587,0.0662
65.121688,0.1633
65.131843,0.1247
65.14199,0.0049
65.151885,-0.2067
65.161788,-0.416
65.171691,-0.3597
65.181602,-0.2517
65.19152,-0.3535
65.201461,-0.9449
65.211326,-1.0
65.221206,-1.0
65.231079,-0.9676
65.23941,-0.1501
65.249534,0.4992
65.259613,0.6894
65.269889,0.7313
65.27996,0.6567
65.290046,0.4674
65.300064,-0.2476
65.309974,-0.3592
65.319885,-0.4154
65.329833,-0.43
65.339736,-0.4144
65.349693,-0.3046
65.359619,-0.2137
65.369583,-0.1766
65.379524,-0.1624
65.389457,-0.1417
65.399436,-0.1376
65.409393,-0.1289
65.419326,-0.1454
65.427726,-0.151
65.437683,-0.1597
65.447624,-0.1762
65.457611,-0.1919
65.467559,-0.247
65.477462,-0.6405
65.487358,-0.6973
65.497291,-0.8791
65.507209,-0.8639
65.515548,-0.772
65.525459,-0.6447
65.535377,-0.3703
65.545303,-0.1165
65.555397,0.1469
65.565498,0.3114
65.575599,0.3846
65.585884,0.1152
65.595809,-0.512
65.605758,-0.6178
65.615684,-0.6316
65.625617,-0.5061
65.635559,-0.3499
65.645484,-0.2483
65.655433,-0.2297
65.665382,-0.2245
65.673751,-0.2227
65.683677,-0.2458
65.693595,-0.2531
65.703536,-0.1298
65.713516,-0.0163
65.723464,-0.0059
65.733589,0.1146
65.743698,0.2313
65.753852,0.2365
65.764015,0.1732
65.774124,0.0907
65.784233,0.0108
65.794158,-0.2961
65.804061,-0.7991
65.81401,-1.0
65.823883,-1.0
65.83377,-1.0
65.84365,-0.7964
65.853561,-0.5036
65.861953,-0.2822
65.871894,-0.1183
65.881828,-0.0238
65.891769,-0.0093
65.901817,0.0224
65.911949,0.1432
65.922042,0.2063
65.932319,0.1855
65.942405,0.1682
65.952491,0.1729
65.962623,0.1447
65.97274,0.1139
65.982849,0.042
65.992805,-0.113
66.002708,-0.4565
66.012641,-0.7456
66.022575,-0.9071
66.032463,-0.9703
66.04235,-0.8566
66.052246,-0.7649
66.062179,-0.5219
66.072082,-0.2652
66.082008,-0.0851
66.090354,-0.0723
66.100265,-0.1626
66.110176,-0.2023
66.120239,0.1073
66.130363,0.2243
66.140495,0.252
66.150596,0.3324
66.160728,0.3627
66.170867,0.3254
66.180976,0.3655
66.191093,0.3026
66.20121,0.076
66.211097,-0.4616
66.221069,-0.5695
66.230972,-0.7411
66.240875,-0.8248
66.250762,-0.7098
66.260658,-0.5396
66.270591,-0.4612
66.280509,-0.2971
66.29042,-0.2581
66.300338,-0.267
66.3087,-0.3171
66.318649,-0.2634
66.328575,-0.0858
66.338653,0.1122
66.34896,0.1404
66.359054,0.1677
66.369178,0.1976
66.379264,0.1735
66.389373,0.1309
66.399475,0.0974
66.409545,-0.0164
66.419502,-0.2838
66.429428,-0.5539
66.439369,-0.5232
66.449295,-0.5753
66.459197,-0.7362
66.469139,-0.7708
66.479057,-0.6529
66.488975,-0.4961
66.498893,-0.3478
66.508827,-0.2231
66.518775,-0.1948
66.528717,-0.2004
66.537078,-0.1833
66.547019,-0.0965
66.557006,0.0033
66.567131,0.1165
66.577255,0.1552
66.587425,0.1224
66.597557,0.0428
66.607666,0.0075
66.617607,-0.0797
66.627555,-0.0058
66.637695,0.035
66.647682,-0.1094
66.657615,-0.3791
66.667533,-0.7858
66.677474,-1.0
66.687385,-0.8698
66.697303,-0.6245
66.707237,-0.4097
66.717155,-0.4021
66.727096,-0.2805
66.73545,-0.2512
66.745361,-0.3961
66.755294,-0.1695
66.765319,0.0694
66.775444,0.1469
66.785751,0.0277
66.795669,-0.0444
66.805603,-0.0436
66.815582,0.0137
66.825706,0.191
66.835792,0.3048
66.845924,0.2907
66.85604,0.1078
66.866027,-0.1422
66.875984,-0.3493
66.885917,-0.5373
66.895843,-0.634
66.905769,-0.5531
66.915695,-0.4943
66.925651,-0.2908
66.935585,-0.3525
66.945495,-0.4216
66.955413,-0.4036
66.963783,-0.3401
66.973716,-0.1765
66.983665,-0.221
66.993598,-0.2531
67.003524,-0.2165
67.01345,-0.04
67.023559,0.1462
67.033683,0.2285
67.043838,0.2292
67.053947,0.2139
67.064064,0.1045
67.074089,-0.031
67.084045,-0.0184
67.093986,-0.0277
67.103919,-0.1129
67.113845,-0.5035
67.123779,-1.0
67.133712,-1.0
67.142059,-1.0
67.151962,-1.0
67.161888,-0.6805
67.171806,-0.2287
67.18177,-0.1709
67.191696,-0.2611
67.201629,-0.4971
67.211555,-0.5179
67.221496,-0.1565
67.229972,0.1313
67.240112,0.2785
67.250236,0.3636
67.260559,0.3272
67.270645,0.2183
67.280761,0.0778
67.290893,0.1399
67.300994,0.196
67.31108,0.2811
67.321235,0.2033
67.33123,-0.2823
67.341194,-0.5947
67.351135,-0.7823
67.361091,-0.7482
67.371009,-0.5563
67.380928,-0.4743
67.390869,-0.4369
67.400794,-0.4697
67.41069,-0.5692
67.420608,-0.3642
67.430526,-0.3369
67.44046,-0.4757
67.450386,-0.5323
67.460304,-0.6205
67.470222,-0.3881
67.480194,0.1018
67.490318,0.2869
67.50048,0.0624
67.510498,0.0043
67.520591,0.1842
67.530693,0.3178
67.540817,0.3403
67.551116,0.2555
67.561134,-0.2123
67.571044,-0.4828
67.58094,-0.4373
67.590881,-0.2741
67.60083,-0.1314
67.610771,-0.1375
67.620704,-0.2369
67.630622,-0.2712
67.638992,-0.4842
67.648925,-0.5845
67.658866,-0.4561
67.668792,-0.1818
67.678718,-0.2827
67.688644,-0.5676
67.698608,-0.3675
67.708541,-0.1468
67.718582,0.0952
67.728706,0.333
67.738845,0.3688
67.748992,0.3442
67.759109,0.1981
67.769233,0.015
67.77919,0.0405
67.789283,0.3865
67.799392,0.5846
67.809555,0.5381
67.819648,-0.181
67.829574,-0.5094
67.839485,-0.5498
67.849456,-0.5121
67.859359,-0.4335
67.869277,-0.3752
67.879203,-0.2783
67.889122,-0.2096
67.897537,-0.1895
67.90747,-0.1984
67.917381,-0.2326
67.927314,-0.3052
67.937232,-0.3169
67.947212,-0.2447
67.957168,-0.2105
67.967102,-0.0901
67.977142,0.0417
67.987274,0.0327
67.997268,-0.0511
68.007217,-0.1112
68.017135,-0.0713
68.02552,-0.0867
68.035438,-0.1828
68.045379,-0.4225
68.05532,-0.6942
68.065246,-0.5735
68.075164,-0.6559
68.085083,-0.6322
68.094985,-0.6861
68.103378,-0.708
68.113281,-0.7887
68.123199,-0.8425
68.133132,-0.6985
68.143074,-0.2729
68.153053,-0.045
68.162979,-0.1845
68.172912,-0.6641
68.182815,-1.0
68.191169,-0.9373
68.201202,0.3248
68.211326,0.6585
68.221626,0.7124
